Coefficients constant [W],Coefficients T [W/K],Coefficients j [W/(A/m^2)],T_start [K],T_end [K],j_start [A/m^2],j_end [A/m^2],Area [m^2],Temperature starts,Temperature ends,Current density starts,Current density ends
510.815373, -1.723725, 0.447841, 313.000000, 315.000000, 1000.000000, 1120.000000, 0.210000, 313.000000, 315.000000, 1000.000000, 1120.000000
585.030091, -1.982385, 0.454014, 313.000000, 315.000000, 1150.000000, 1270.000000, 0.210000, 315.500000, 317.500000, 1150.000000, 1270.000000
659.649667, -2.244804, 0.460069, 313.000000, 315.000000, 1300.000000, 1420.000000, 0.210000, 318.000000, 320.000000, 1300.000000, 1420.000000
734.606679, -2.510950, 0.466071, 313.000000, 315.000000, 1450.000000, 1570.000000, 0.210000, 320.500000, 322.500000, 1450.000000, 1570.000000
809.816219, -2.780775, 0.472075, 313.000000, 315.000000, 1600.000000, 1720.000000, 0.210000, 323.000000, 325.000000, 1600.000000, 1720.000000
885.171411, -3.054218, 0.478130, 313.000000, 315.000000, 1750.000000, 1870.000000, 0.210000, 325.500000, 327.500000, 1750.000000, 1870.000000
960.536912, -3.331202, 0.484287, 313.000000, 315.000000, 1900.000000, 2020.000000, 0.210000, 328.000000, 330.000000, 1900.000000, 2020.000000
1035.739518, -3.611631, 0.490601, 313.000000, 315.000000, 2050.000000, 2170.000000, 0.210000, 330.500000, 332.500000, 2050.000000, 2170.000000
1110.554399, -3.895386, 0.497137, 313.000000, 315.000000, 2200.000000, 2320.000000, 0.210000, 333.000000, 335.000000, 2200.000000, 2320.000000
1177.291152, -4.153440, 0.503270, 313.000000, 315.000000, 2350.000000, 2440.000000, 0.210000, 335.500000, 337.000000, 2350.000000, 2440.000000
1235.939995, -4.384916, 0.508986, 313.000000, 315.000000, 2470.000000, 2560.000000, 0.210000, 337.500000, 339.000000, 2470.000000, 2560.000000
1293.662709, -4.618201, 0.515016, 313.000000, 315.000000, 2590.000000, 2680.000000, 0.210000, 339.500000, 341.000000, 2590.000000, 2680.000000
1350.111111, -4.853150, 0.521443, 313.000000, 315.000000, 2710.000000, 2800.000000, 0.210000, 341.500000, 343.000000, 2710.000000, 2800.000000
1404.815737, -5.089583, 0.528381, 313.000000, 315.000000, 2830.000000, 2920.000000, 0.210000, 343.500000, 345.000000, 2830.000000, 2920.000000
1457.126855, -5.327267, 0.535985, 313.000000, 315.000000, 2950.000000, 3040.000000, 0.210000, 345.500000, 347.000000, 2950.000000, 3040.000000
1506.116837, -5.565903, 0.544474, 313.000000, 315.000000, 3070.000000, 3160.000000, 0.210000, 347.500000, 349.000000, 3070.000000, 3160.000000
1550.410531, -5.805085, 0.554174, 313.000000, 315.000000, 3190.000000, 3280.000000, 0.210000, 349.500000, 351.000000, 3190.000000, 3280.000000
1587.872442, -6.044253, 0.565591, 313.000000, 315.000000, 3310.000000, 3400.000000, 0.210000, 351.500000, 353.000000, 3310.000000, 3400.000000
1614.985474, -6.282598, 0.579560, 313.000000, 315.000000, 3430.000000, 3520.000000, 0.210000, 353.500000, 355.000000, 3430.000000, 3520.000000
1625.493281, -6.518879, 0.597564, 313.000000, 315.000000, 3550.000000, 3640.000000, 0.210000, 355.500000, 357.000000, 3550.000000, 3640.000000
1607.026090, -6.751041, 0.622542, 313.000000, 315.000000, 3670.000000, 3760.000000, 0.210000, 357.500000, 359.000000, 3670.000000, 3760.000000
1531.014773, -6.975271, 0.661287, 313.000000, 315.000000, 3790.000000, 3880.000000, 0.210000, 359.500000, 361.000000, 3790.000000, 3880.000000
1312.179025, -7.183041, 0.734110, 313.000000, 315.000000, 3910.000000, 4000.000000, 0.210000, 361.500000, 363.000000, 3910.000000, 4000.000000
507.487996, -1.698909, 0.443600, 315.500000, 317.500000, 1000.000000, 1120.000000, 0.210000
580.923646, -1.952848, 0.449713, 315.500000, 317.500000, 1150.000000, 1270.000000, 0.210000
654.686132, -2.210244, 0.455708, 315.500000, 317.500000, 1300.000000, 1420.000000, 0.210000
728.707413, -2.471062, 0.461651, 315.500000, 317.500000, 1450.000000, 1570.000000, 0.210000
802.901839, -2.735257, 0.467596, 315.500000, 317.500000, 1600.000000, 1720.000000, 0.210000
877.161626, -3.002766, 0.473594, 315.500000, 317.500000, 1750.000000, 1870.000000, 0.210000
951.350309, -3.273512, 0.479695, 315.500000, 317.500000, 1900.000000, 2020.000000, 0.210000
1025.293267, -3.547399, 0.485956, 315.500000, 317.500000, 2050.000000, 2170.000000, 0.210000
1098.763846, -3.824308, 0.492440, 315.500000, 317.500000, 2200.000000, 2320.000000, 0.210000
1164.217897, -4.075946, 0.498529, 315.500000, 317.500000, 2350.000000, 2440.000000, 0.210000
1221.664208, -4.301507, 0.504208, 315.500000, 317.500000, 2470.000000, 2560.000000, 0.210000
1278.124769, -4.528683, 0.510203, 315.500000, 317.500000, 2590.000000, 2680.000000, 0.210000
1333.248613, -4.757328, 0.516600, 315.500000, 317.500000, 2710.000000, 2800.000000, 0.210000
1386.562531, -4.987262, 0.523511, 315.500000, 317.500000, 2830.000000, 2920.000000, 0.210000
1437.411607, -5.218254, 0.531093, 315.500000, 317.500000, 2950.000000, 3040.000000, 0.210000
1484.860822, -5.450001, 0.539568, 315.500000, 317.500000, 3070.000000, 3160.000000, 0.210000
1527.524064, -5.682100, 0.549264, 315.500000, 317.500000, 3190.000000, 3280.000000, 0.210000
1563.248832, -5.913990, 0.560691, 315.500000, 317.500000, 3310.000000, 3400.000000, 0.210000
1588.490020, -6.144863, 0.574690, 315.500000, 317.500000, 3430.000000, 3520.000000, 0.210000
1596.941463, -6.373476, 0.592756, 315.500000, 317.500000, 3550.000000, 3640.000000, 0.210000
1576.134899, -6.597775, 0.617851, 315.500000, 317.500000, 3670.000000, 3760.000000, 0.210000
1497.273733, -6.813948, 0.656825, 315.500000, 317.500000, 3790.000000, 3880.000000, 0.210000
1274.398671, -7.013465, 0.730147, 315.500000, 317.500000, 3910.000000, 4000.000000, 0.210000
504.332765, -1.675078, 0.439433, 318.000000, 320.000000, 1000.000000, 1120.000000, 0.210000
577.039152, -1.924543, 0.445490, 318.000000, 320.000000, 1150.000000, 1270.000000, 0.210000
650.000676, -2.177189, 0.451430, 318.000000, 320.000000, 1300.000000, 1420.000000, 0.210000
723.148676, -2.432981, 0.457319, 318.000000, 320.000000, 1450.000000, 1570.000000, 0.210000
796.396758, -2.691873, 0.463210, 318.000000, 320.000000, 1600.000000, 1720.000000, 0.210000
869.636234, -2.953803, 0.469156, 318.000000, 320.000000, 1750.000000, 1870.000000, 0.210000
942.729514, -3.218693, 0.475206, 318.000000, 320.000000, 1900.000000, 2020.000000, 0.210000
1015.500562, -3.486447, 0.481418, 318.000000, 320.000000, 2050.000000, 2170.000000, 0.210000
1087.720899, -3.756945, 0.487856, 318.000000, 320.000000, 2200.000000, 2320.000000, 0.210000
1151.982191, -4.002581, 0.493904, 318.000000, 320.000000, 2350.000000, 2440.000000, 0.210000
1208.310323, -4.222614, 0.499550, 318.000000, 320.000000, 2470.000000, 2560.000000, 0.210000
1263.597129, -4.444085, 0.505515, 318.000000, 320.000000, 2590.000000, 2680.000000, 0.210000
1317.488861, -4.666848, 0.511885, 318.000000, 320.000000, 2710.000000, 2800.000000, 0.210000
1369.508562, -4.890722, 0.518773, 318.000000, 320.000000, 2830.000000, 2920.000000, 0.210000
1418.996135, -5.115476, 0.526338, 318.000000, 320.000000, 2950.000000, 3040.000000, 0.210000
1465.009166, -5.340807, 0.534803, 318.000000, 320.000000, 3070.000000, 3160.000000, 0.210000
1506.150589, -5.566313, 0.544498, 318.000000, 320.000000, 3190.000000, 3280.000000, 0.210000
1540.250891, -5.791434, 0.555939, 318.000000, 320.000000, 3310.000000, 3400.000000, 0.210000
1563.736959, -6.015358, 0.569971, 318.000000, 320.000000, 3430.000000, 3520.000000, 0.210000
1570.252810, -6.236845, 0.588104, 318.000000, 320.000000, 3550.000000, 3640.000000, 0.210000
1547.231691, -6.453841, 0.613321, 318.000000, 320.000000, 3670.000000, 3760.000000, 0.210000
1465.649540, -6.662533, 0.652526, 318.000000, 320.000000, 3790.000000, 3880.000000, 0.210000
1238.868075, -6.854391, 0.726351, 318.000000, 320.000000, 3910.000000, 4000.000000, 0.210000
501.332771, -1.652151, 0.435337, 320.500000, 322.500000, 1000.000000, 1120.000000, 0.210000
573.354602, -1.897366, 0.441342, 320.500000, 322.500000, 1150.000000, 1270.000000, 0.210000
645.565519, -2.145510, 0.447232, 320.500000, 322.500000, 1300.000000, 1420.000000, 0.210000
717.896241, -2.396549, 0.453071, 320.500000, 322.500000, 1450.000000, 1570.000000, 0.210000
790.259632, -2.650434, 0.458913, 320.500000, 322.500000, 1600.000000, 1720.000000, 0.210000
862.546100, -2.907104, 0.464811, 320.500000, 322.500000, 1750.000000, 1870.000000, 0.210000
934.616931, -3.166481, 0.470815, 320.500000, 322.500000, 1900.000000, 2020.000000, 0.210000
1006.294671, -3.428470, 0.476982, 320.500000, 322.500000, 2050.000000, 2170.000000, 0.210000
1077.349020, -3.692950, 0.483377, 320.500000, 322.500000, 2200.000000, 2320.000000, 0.210000
1140.498107, -3.932956, 0.489390, 320.500000, 322.500000, 2350.000000, 2440.000000, 0.210000
1195.783596, -4.147810, 0.495006, 320.500000, 322.500000, 2470.000000, 2560.000000, 0.210000
1249.975802, -4.363939, 0.500944, 320.500000, 322.500000, 2590.000000, 2680.000000, 0.210000
1302.718193, -4.581198, 0.507290, 320.500000, 322.500000, 2710.000000, 2800.000000, 0.210000
1353.530064, -4.799406, 0.514160, 320.500000, 322.500000, 2830.000000, 2920.000000, 0.210000
1401.746136, -5.018331, 0.521711, 320.500000, 322.500000, 2950.000000, 3040.000000, 0.210000
1446.416602, -5.237672, 0.530169, 320.500000, 322.500000, 3070.000000, 3160.000000, 0.210000
1486.133440, -5.457025, 0.539867, 320.500000, 322.500000, 3190.000000, 3280.000000, 0.210000
1518.710128, -5.675830, 0.551325, 320.500000, 322.500000, 3310.000000, 3400.000000, 0.210000
1540.545543, -5.893277, 0.565395, 320.500000, 322.500000, 3430.000000, 3520.000000, 0.210000
1545.233885, -6.108124, 0.583597, 320.500000, 322.500000, 3550.000000, 3640.000000, 0.210000
1520.109909, -6.318318, 0.608939, 320.500000, 322.500000, 3670.000000, 3760.000000, 0.210000
1435.922089, -6.520045, 0.648379, 320.500000, 322.500000, 3790.000000, 3880.000000, 0.210000
1205.353152, -6.704776, 0.722710, 320.500000, 322.500000, 3910.000000, 4000.000000, 0.210000
498.473217, -1.630057, 0.431307, 323.000000, 325.000000, 1000.000000, 1120.000000, 0.210000
569.850735, -1.871226, 0.437266, 323.000000, 325.000000, 1150.000000, 1270.000000, 0.210000
641.356350, -2.115094, 0.443109, 323.000000, 325.000000, 1300.000000, 1420.000000, 0.210000
712.920160, -2.361625, 0.448902, 323.000000, 325.000000, 1450.000000, 1570.000000, 0.210000
784.454289, -2.610772, 0.454699, 323.000000, 325.000000, 1600.000000, 1720.000000, 0.210000
855.848237, -2.862472, 0.460553, 323.000000, 325.000000, 1750.000000, 1870.000000, 0.210000
926.962170, -3.116647, 0.466514, 323.000000, 325.000000, 1900.000000, 2020.000000, 0.210000
997.617215, -3.373203, 0.472641, 323.000000, 325.000000, 2050.000000, 2170.000000, 0.210000
1067.581249, -3.632017, 0.478997, 323.000000, 325.000000, 2200.000000, 2320.000000, 0.210000
1129.690472, -3.866730, 0.484978, 323.000000, 325.000000, 2350.000000, 2440.000000, 0.210000
1184.001148, -4.076718, 0.490568, 323.000000, 325.000000, 2470.000000, 2560.000000, 0.210000
1237.169822, -4.287833, 0.496482, 323.000000, 325.000000, 2590.000000, 2680.000000, 0.210000
1288.837180, -4.499929, 0.502808, 323.000000, 325.000000, 2710.000000, 2800.000000, 0.210000
1338.518768, -4.712826, 0.509662, 323.000000, 325.000000, 2830.000000, 2920.000000, 0.210000
1385.544128, -4.926292, 0.517202, 323.000000, 325.000000, 2950.000000, 3040.000000, 0.210000
1428.956057, -5.140024, 0.525657, 323.000000, 325.000000, 3070.000000, 3160.000000, 0.210000
1467.335577, -5.353621, 0.535362, 323.000000, 325.000000, 3190.000000, 3280.000000, 0.210000
1498.479157, -5.566520, 0.546840, 323.000000, 325.000000, 3310.000000, 3400.000000, 0.210000
1518.757666, -5.777913, 0.560950, 323.000000, 325.000000, 3430.000000, 3520.000000, 0.210000
1521.715486, -5.986557, 0.579225, 323.000000, 325.000000, 3550.000000, 3640.000000, 0.210000
1494.588882, -6.190399, 0.604696, 323.000000, 325.000000, 3670.000000, 3760.000000, 0.210000
1407.898858, -6.385626, 0.644374, 323.000000, 325.000000, 3790.000000, 3880.000000, 0.210000
1173.649157, -6.563708, 0.719215, 323.000000, 325.000000, 3910.000000, 4000.000000, 0.210000
495.741112, -1.608733, 0.427342, 325.500000, 327.500000, 1000.000000, 1120.000000, 0.210000
566.510645, -1.846043, 0.433257, 325.500000, 327.500000, 1150.000000, 1270.000000, 0.210000
637.351831, -2.085839, 0.439057, 325.500000, 327.500000, 1300.000000, 1420.000000, 0.210000
708.194149, -2.328087, 0.444808, 325.500000, 327.500000, 1450.000000, 1570.000000, 0.210000
778.948981, -2.572739, 0.450564, 325.500000, 327.500000, 1600.000000, 1720.000000, 0.210000
849.504922, -2.819731, 0.456377, 325.500000, 327.500000, 1750.000000, 1870.000000, 0.210000
919.721013, -3.068987, 0.462300, 325.500000, 327.500000, 1900.000000, 2020.000000, 0.210000
989.416966, -3.320411, 0.468389, 325.500000, 327.500000, 2050.000000, 2170.000000, 0.210000
1058.358835, -3.573881, 0.474711, 325.500000, 327.500000, 2200.000000, 2320.000000, 0.210000
1119.493330, -3.803605, 0.480663, 325.500000, 327.500000, 2350.000000, 2440.000000, 0.210000
1172.890259, -4.009011, 0.486230, 325.500000, 327.500000, 2470.000000, 2560.000000, 0.210000
1225.099377, -4.215407, 0.492124, 325.500000, 327.500000, 2590.000000, 2680.000000, 0.210000
1275.758586, -4.422649, 0.498432, 325.500000, 327.500000, 2710.000000, 2800.000000, 0.210000
1324.379688, -4.630555, 0.505272, 325.500000, 327.500000, 2830.000000, 2920.000000, 0.210000
1370.287039, -4.838894, 0.512805, 325.500000, 327.500000, 2950.000000, 3040.000000, 0.210000
1412.516045, -5.047364, 0.521260, 325.500000, 327.500000, 3070.000000, 3160.000000, 0.210000
1449.636772, -5.255561, 0.530974, 325.500000, 327.500000, 3190.000000, 3280.000000, 0.210000
1479.428678, -5.462924, 0.542475, 325.500000, 327.500000, 3310.000000, 3400.000000, 0.210000
1498.234625, -5.668645, 0.556629, 325.500000, 327.500000, 3430.000000, 3520.000000, 0.210000
1499.549176, -5.871481, 0.574980, 325.500000, 327.500000, 3550.000000, 3640.000000, 0.210000
1470.510105, -6.069378, 0.600582, 325.500000, 327.500000, 3670.000000, 3760.000000, 0.210000
1381.410952, -6.258524, 0.640501, 325.500000, 327.500000, 3790.000000, 3880.000000, 0.210000
1143.576469, -6.430388, 0.715855, 325.500000, 327.500000, 3910.000000, 4000.000000, 0.210000
493.125017, -1.588124, 0.423438, 328.000000, 330.000000, 1000.000000, 1120.000000, 0.210000
563.319449, -1.821744, 0.429313, 328.000000, 330.000000, 1150.000000, 1270.000000, 0.210000
633.533181, -2.057657, 0.435073, 328.000000, 330.000000, 1300.000000, 1420.000000, 0.210000
703.695075, -2.295827, 0.440785, 328.000000, 330.000000, 1450.000000, 1570.000000, 0.210000
773.715768, -2.536205, 0.446503, 328.000000, 330.000000, 1600.000000, 1720.000000, 0.210000
843.482952, -2.778729, 0.452280, 328.000000, 330.000000, 1750.000000, 1870.000000, 0.210000
912.854547, -3.023322, 0.458167, 328.000000, 330.000000, 1900.000000, 2020.000000, 0.210000
981.648844, -3.269886, 0.464223, 328.000000, 330.000000, 2050.000000, 2170.000000, 0.210000
1049.630077, -3.518303, 0.470514, 328.000000, 330.000000, 2200.000000, 2320.000000, 0.210000
1109.848643, -3.743314, 0.476440, 328.000000, 330.000000, 2350.000000, 2440.000000, 0.210000
1162.386941, -3.944396, 0.481986, 328.000000, 330.000000, 2470.000000, 2560.000000, 0.210000
1213.694238, -4.146342, 0.487862, 328.000000, 330.000000, 2590.000000, 2680.000000, 0.210000
1263.405654, -4.349010, 0.494156, 328.000000, 330.000000, 2710.000000, 2800.000000, 0.210000
1311.029243, -4.552216, 0.500986, 328.000000, 330.000000, 2830.000000, 2920.000000, 0.210000
1355.884179, -4.755729, 0.508514, 328.000000, 330.000000, 2950.000000, 3040.000000, 0.210000
1396.998476, -4.959248, 0.516970, 328.000000, 330.000000, 3070.000000, 3160.000000, 0.210000
1432.931242, -5.162369, 0.526697, 328.000000, 330.000000, 3190.000000, 3280.000000, 0.210000
1461.444926, -5.364532, 0.538224, 328.000000, 330.000000, 3310.000000, 3400.000000, 0.210000
1478.854382, -5.564926, 0.552424, 328.000000, 330.000000, 3430.000000, 3520.000000, 0.210000
1478.604355, -5.762310, 0.570853, 328.000000, 330.000000, 3550.000000, 3640.000000, 0.210000
1447.734129, -5.954630, 0.596590, 328.000000, 330.000000, 3670.000000, 3760.000000, 0.210000
1356.309775, -6.138074, 0.636753, 328.000000, 330.000000, 3790.000000, 3880.000000, 0.210000
1114.977059, -6.304111, 0.712622, 328.000000, 330.000000, 3910.000000, 4000.000000, 0.210000
490.614831, -1.568180, 0.419592, 330.500000, 332.500000, 1000.000000, 1120.000000, 0.210000
560.264006, -1.798267, 0.425430, 330.500000, 332.500000, 1150.000000, 1270.000000, 0.210000
629.883820, -2.030468, 0.431154, 330.500000, 332.500000, 1300.000000, 1420.000000, 0.210000
699.402516, -2.264746, 0.436830, 330.500000, 332.500000, 1450.000000, 1570.000000, 0.210000
768.729990, -2.501054, 0.442514, 330.500000, 332.500000, 1600.000000, 1720.000000, 0.210000
837.753029, -2.739328, 0.448257, 330.500000, 332.500000, 1750.000000, 1870.000000, 0.210000
906.328429, -2.979492, 0.454112, 330.500000, 332.500000, 1900.000000, 2020.000000, 0.210000
974.273067, -3.221447, 0.460137, 330.500000, 332.500000, 2050.000000, 2170.000000, 0.210000
1041.349352, -3.465074, 0.466400, 330.500000, 332.500000, 2200.000000, 2320.000000, 0.210000
1100.705196, -3.685624, 0.472303, 330.500000, 332.500000, 2350.000000, 2440.000000, 0.210000
1152.434731, -3.882615, 0.477831, 330.500000, 332.500000, 2470.000000, 2560.000000, 0.210000
1202.892439, -4.080357, 0.483691, 330.500000, 332.500000, 2590.000000, 2680.000000, 0.210000
1251.710657, -4.278703, 0.489973, 330.500000, 332.500000, 2710.000000, 2800.000000, 0.210000
1298.393690, -4.477473, 0.496795, 330.500000, 332.500000, 2830.000000, 2920.000000, 0.210000
1342.255533, -4.676435, 0.504321, 330.500000, 332.500000, 2950.000000, 3040.000000, 0.210000
1382.316805, -4.875287, 0.512782, 330.500000, 332.500000, 3070.000000, 3160.000000, 0.210000
1417.125657, -5.073626, 0.522523, 330.500000, 332.500000, 3190.000000, 3280.000000, 0.210000
1444.427532, -5.270892, 0.534079, 330.500000, 332.500000, 3310.000000, 3400.000000, 0.210000
1460.509271, -5.466273, 0.548328, 330.500000, 332.500000, 3430.000000, 3520.000000, 0.210000
1458.765804, -5.658529, 0.566838, 330.500000, 332.500000, 3550.000000, 3640.000000, 0.210000
1426.137923, -5.845606, 0.592712, 330.500000, 332.500000, 3670.000000, 3760.000000, 0.210000
1332.464234, -6.023690, 0.633121, 330.500000, 332.500000, 3790.000000, 3880.000000, 0.210000
1087.711514, -6.184252, 0.709508, 330.500000, 332.500000, 3910.000000, 4000.000000, 0.210000
488.201613, -1.548856, 0.415803, 333.000000, 335.000000, 1000.000000, 1120.000000, 0.210000
557.332683, -1.775554, 0.421607, 333.000000, 335.000000, 1150.000000, 1270.000000, 0.210000
626.389071, -2.004201, 0.427297, 333.000000, 335.000000, 1300.000000, 1420.000000, 0.210000
695.298399, -2.234760, 0.432940, 333.000000, 335.000000, 1450.000000, 1570.000000, 0.210000
763.969822, -2.467183, 0.438592, 333.000000, 335.000000, 1600.000000, 1720.000000, 0.210000
832.289223, -2.701407, 0.444304, 333.000000, 335.000000, 1750.000000, 1870.000000, 0.210000
900.112274, -2.937355, 0.450130, 333.000000, 335.000000, 1900.000000, 2020.000000, 0.210000
967.254436, -3.174929, 0.456128, 333.000000, 335.000000, 2050.000000, 2170.000000, 0.210000
1033.476295, -3.414008, 0.462365, 333.000000, 335.000000, 2200.000000, 2320.000000, 0.210000
1092.017679, -3.630327, 0.468248, 333.000000, 335.000000, 2350.000000, 2440.000000, 0.210000
1142.983677, -3.823441, 0.473759, 333.000000, 335.000000, 2470.000000, 2560.000000, 0.210000
1192.639158, -4.017199, 0.479607, 333.000000, 335.000000, 2590.000000, 2680.000000, 0.210000
1240.613677, -4.211456, 0.485879, 333.000000, 335.000000, 2710.000000, 2800.000000, 0.210000
1286.407791, -4.406031, 0.492696, 333.000000, 335.000000, 2830.000000, 2920.000000, 0.210000
1329.330315, -4.600691, 0.500221, 333.000000, 335.000000, 2950.000000, 3040.000000, 0.210000
1368.394471, -4.795135, 0.508690, 333.000000, 335.000000, 3070.000000, 3160.000000, 0.210000
1402.137458, -4.988959, 0.518448, 333.000000, 335.000000, 3190.000000, 3280.000000, 0.210000
