Coefficients constant [W],Coefficients T [W/K],Coefficients j [W/(A/m^2)],T_start [K],T_end [K],j_start [A/m^2],j_end [A/m^2],Area [m^2],Temperature starts,Temperature ends,Current density starts,Current density ends
389.447814, -1.480546, 0.475123, 293.000000, 297.000000, 1500.000000, 2425.000000, 0.210000, 293.000000, 297.000000, 1500.000000, 2425.000000
654.610646, -2.533201, 0.493585, 293.000000, 297.000000, 2540.625000, 3350.000000, 0.210000, 297.500000, 301.000000, 2540.625000, 3350.000000
953.682112, -3.734854, 0.509859, 293.000000, 297.000000, 3465.625000, 4275.000000, 0.210000, 301.500000, 305.000000, 3465.625000, 4275.000000
1300.423935, -5.141478, 0.525607, 293.000000, 297.000000, 4390.625000, 5200.000000, 0.210000, 305.500000, 309.000000, 4390.625000, 5200.000000
1694.899156, -6.754306, 0.541074, 293.000000, 297.000000, 5315.625000, 6125.000000, 0.210000, 309.500000, 313.000000, 5315.625000, 6125.000000
2136.925902, -8.573983, 0.556404, 293.000000, 297.000000, 6240.625000, 7050.000000, 0.210000, 313.500000, 317.000000, 6240.625000, 7050.000000
2626.110770, -10.600771, 0.571700, 293.000000, 297.000000, 7165.625000, 7975.000000, 0.210000, 317.500000, 321.000000, 7165.625000, 7975.000000
3161.837448, -12.834645, 0.587044, 293.000000, 297.000000, 8090.625000, 8900.000000, 0.210000, 321.500000, 325.000000, 8090.625000, 8900.000000
3743.220825, -15.275326, 0.602518, 293.000000, 297.000000, 9015.625000, 9825.000000, 0.210000, 325.500000, 329.000000, 9015.625000, 9825.000000
4369.021505, -17.922280, 0.618205, 293.000000, 297.000000, 9940.625000, 10750.000000, 0.210000, 329.500000, 333.000000, 9940.625000, 10750.000000
5037.502811, -20.774681, 0.634208, 293.000000, 297.000000, 10865.625000, 11675.000000, 0.210000, 333.500000, 337.000000, 10865.625000, 11675.000000
5746.193117, -23.831343, 0.650657, 293.000000, 297.000000, 11790.625000, 12600.000000, 0.210000, 337.500000, 341.000000, 11790.625000, 12600.000000
6491.479652, -27.090596, 0.667733, 293.000000, 297.000000, 12715.625000, 13525.000000, 0.210000, 341.500000, 345.000000, 12715.625000, 13525.000000
7267.880650, -30.550078, 0.685703, 293.000000, 297.000000, 13640.625000, 14450.000000, 0.210000, 345.500000, 349.000000, 13640.625000, 14450.000000
8066.655217, -34.206375, 0.704984, 293.000000, 297.000000, 14565.625000, 15375.000000, 0.210000, 349.500000, 353.000000, 14565.625000, 15375.000000
8872.917657, -38.054345, 0.726285, 293.000000, 297.000000, 15490.625000, 16300.000000, 0.210000, 353.500000, 357.000000, 15490.625000, 16300.000000
9658.946222, -42.085779, 0.750921, 293.000000, 297.000000, 16415.625000, 17225.000000, 0.210000, 357.500000, 361.000000, 16415.625000, 17225.000000
10366.082997, -46.286327, 0.781674, 293.000000, 297.000000, 17340.625000, 18150.000000, 0.210000, 361.500000, 365.000000, 17340.625000, 18150.000000
10842.941992, -50.627084, 0.825745, 293.000000, 297.000000, 18265.625000, 19075.000000, 0.210000, 365.500000, 369.000000, 18265.625000, 19075.000000
10526.690146, -55.032488, 0.909971, 293.000000, 297.000000, 19190.625000, 20000.000000, 0.210000, 369.500000, 373.000000, 19190.625000, 20000.000000
397.575619, -1.481338, 0.471102, 297.500000, 301.000000, 1500.000000, 2425.000000, 0.210000
658.619769, -2.497656, 0.488639, 297.500000, 301.000000, 2540.625000, 3350.000000, 0.210000
948.665733, -3.641983, 0.504026, 297.500000, 301.000000, 3465.625000, 4275.000000, 0.210000
1281.461740, -4.969077, 0.518880, 297.500000, 301.000000, 4390.625000, 5200.000000, 0.210000
1657.071741, -6.480173, 0.533449, 297.500000, 301.000000, 5315.625000, 6125.000000, 0.210000
2075.311241, -8.175914, 0.547878, 297.500000, 301.000000, 6240.625000, 7050.000000, 0.210000
2535.781170, -10.056564, 0.562273, 297.500000, 301.000000, 7165.625000, 7975.000000, 0.210000
3037.856338, -12.122096, 0.576717, 297.500000, 301.000000, 8090.625000, 8900.000000, 0.210000
3580.638880, -14.372234, 0.591293, 297.500000, 301.000000, 9015.625000, 9825.000000, 0.210000
4162.871548, -16.806441, 0.606085, 297.500000, 301.000000, 9940.625000, 10750.000000, 0.210000
4782.792641, -19.423892, 0.621197, 297.500000, 301.000000, 10865.625000, 11675.000000, 0.210000
5437.894927, -22.223401, 0.636761, 297.500000, 301.000000, 11790.625000, 12600.000000, 0.210000
6124.513587, -25.203298, 0.652962, 297.500000, 301.000000, 12715.625000, 13525.000000, 0.210000
6837.087880, -28.361222, 0.670070, 297.500000, 301.000000, 13640.625000, 14450.000000, 0.210000
7566.750983, -31.693757, 0.688508, 297.500000, 301.000000, 14565.625000, 15375.000000, 0.210000
8298.402746, -35.195764, 0.708995, 297.500000, 301.000000, 15490.625000, 16300.000000, 0.210000
9003.922039, -38.859030, 0.732864, 297.500000, 301.000000, 16415.625000, 17225.000000, 0.210000
9623.805876, -42.669208, 0.762939, 297.500000, 301.000000, 17340.625000, 18150.000000, 0.210000
10004.487283, -46.597393, 0.806524, 297.500000, 301.000000, 18265.625000, 19075.000000, 0.210000
9575.024585, -50.568020, 0.890842, 297.500000, 301.000000, 19190.625000, 20000.000000, 0.210000
406.797069, -1.487840, 0.467402, 301.500000, 305.000000, 1500.000000, 2425.000000, 0.210000
665.579333, -2.476978, 0.484162, 301.500000, 305.000000, 2540.625000, 3350.000000, 0.210000
949.176739, -3.576560, 0.498803, 301.500000, 305.000000, 3465.625000, 4275.000000, 0.210000
1271.397097, -4.840511, 0.512904, 301.500000, 305.000000, 4390.625000, 5200.000000, 0.210000
1632.305208, -6.270068, 0.526715, 301.500000, 305.000000, 5315.625000, 6125.000000, 0.210000
2031.714115, -7.865874, 0.540386, 301.500000, 305.000000, 6240.625000, 7050.000000, 0.210000
2469.219411, -9.628190, 0.554022, 301.500000, 305.000000, 7165.625000, 7975.000000, 0.210000
2944.187550, -11.556993, 0.567707, 301.500000, 305.000000, 8090.625000, 8900.000000, 0.210000
3455.708666, -13.652004, 0.581525, 301.500000, 305.000000, 9015.625000, 9825.000000, 0.210000
4002.508704, -15.912687, 0.595564, 301.500000, 305.000000, 9940.625000, 10750.000000, 0.210000
4582.802418, -18.338217, 0.609926, 301.500000, 305.000000, 10865.625000, 11675.000000, 0.210000
5194.049059, -20.927408, 0.624747, 301.500000, 305.000000, 11790.625000, 12600.000000, 0.210000
5832.534823, -23.678590, 0.640213, 301.500000, 305.000000, 12715.625000, 13525.000000, 0.210000
6492.624640, -26.589402, 0.656597, 301.500000, 305.000000, 13640.625000, 14450.000000, 0.210000
7165.333166, -29.656429, 0.674330, 301.500000, 305.000000, 14565.625000, 15375.000000, 0.210000
7835.358411, -32.874529, 0.694139, 301.500000, 305.000000, 15490.625000, 16300.000000, 0.210000
8474.203358, -36.235492, 0.717375, 301.500000, 305.000000, 16415.625000, 17225.000000, 0.210000
9021.569658, -39.724971, 0.746901, 301.500000, 305.000000, 17340.625000, 18150.000000, 0.210000
9321.837645, -43.314058, 0.790117, 301.500000, 305.000000, 18265.625000, 19075.000000, 0.210000
8796.434012, -46.927192, 0.874609, 301.500000, 305.000000, 19190.625000, 20000.000000, 0.210000
417.390674, -1.499134, 0.463761, 305.500000, 309.000000, 1500.000000, 2425.000000, 0.210000
675.292857, -2.466936, 0.479824, 305.500000, 309.000000, 2540.625000, 3350.000000, 0.210000
954.184283, -3.529441, 0.493794, 305.500000, 309.000000, 3465.625000, 4275.000000, 0.210000
1267.994550, -4.740000, 0.507217, 305.500000, 309.000000, 4390.625000, 5200.000000, 0.210000
1616.789314, -6.099849, 0.520346, 305.500000, 309.000000, 5315.625000, 6125.000000, 0.210000
2000.379152, -7.609630, 0.533333, 305.500000, 309.000000, 6240.625000, 7050.000000, 0.210000
2418.354323, -9.269608, 0.546284, 305.500000, 309.000000, 7165.625000, 7975.000000, 0.210000
2870.072924, -11.079756, 0.559286, 305.500000, 309.000000, 8090.625000, 8900.000000, 0.210000
3354.613088, -13.039796, 0.572422, 305.500000, 309.000000, 9015.625000, 9825.000000, 0.210000
3870.683954, -15.149192, 0.585781, 305.500000, 309.000000, 9940.625000, 10750.000000, 0.210000
4416.476728, -17.407121, 0.599469, 305.500000, 309.000000, 10865.625000, 11675.000000, 0.210000
4989.417149, -19.812395, 0.613621, 305.500000, 309.000000, 11790.625000, 12600.000000, 0.210000
5585.742424, -22.363344, 0.628427, 305.500000, 309.000000, 12715.625000, 13525.000000, 0.210000
6199.743155, -25.057608, 0.644163, 305.500000, 309.000000, 13640.625000, 14450.000000, 0.210000
6822.315477, -27.891770, 0.661266, 305.500000, 309.000000, 14565.625000, 15375.000000, 0.210000
7437.955560, -30.860690, 0.680472, 305.500000, 309.000000, 15490.625000, 16300.000000, 0.210000
8017.790499, -33.956158, 0.703150, 305.500000, 309.000000, 16415.625000, 17225.000000, 0.210000
8500.726584, -37.163826, 0.732201, 305.500000, 309.000000, 17340.625000, 18150.000000, 0.210000
8729.091458, -40.454786, 0.775123, 305.500000, 309.000000, 18265.625000, 19075.000000, 0.210000
8116.680177, -43.753478, 0.859866, 305.500000, 309.000000, 19190.625000, 20000.000000, 0.210000
429.236837, -1.514597, 0.460162, 309.500000, 313.000000, 1500.000000, 2425.000000, 0.210000
687.496084, -2.466146, 0.475598, 309.500000, 313.000000, 2540.625000, 3350.000000, 0.210000
963.234056, -3.498244, 0.488964, 309.500000, 313.000000, 3465.625000, 4275.000000, 0.210000
1270.558154, -4.663891, 0.501775, 309.500000, 313.000000, 4390.625000, 5200.000000, 0.210000
1609.534892, -5.964322, 0.514289, 309.500000, 313.000000, 5315.625000, 6125.000000, 0.210000
1979.972379, -7.400181, 0.526659, 309.500000, 313.000000, 6240.625000, 7050.000000, 0.210000
2381.455540, -8.971731, 0.538992, 309.500000, 313.000000, 7165.625000, 7975.000000, 0.210000
2813.334116, -10.678946, 0.551377, 309.500000, 313.000000, 8090.625000, 8900.000000, 0.210000
3274.674237, -12.521548, 0.563898, 309.500000, 313.000000, 9015.625000, 9825.000000, 0.210000
3764.168238, -14.499001, 0.576644, 309.500000, 313.000000, 9940.625000, 10750.000000, 0.210000
4279.983775, -16.610481, 0.589723, 309.500000, 313.000000, 10865.625000, 11675.000000, 0.210000
4819.513075, -18.854801, 0.603274, 309.500000, 313.000000, 11790.625000, 12600.000000, 0.210000
5378.944359, -21.230292, 0.617485, 309.500000, 313.000000, 12715.625000, 13525.000000, 0.210000
5952.493898, -23.734592, 0.632640, 309.500000, 313.000000, 13640.625000, 14450.000000, 0.210000
6530.939307, -26.364285, 0.649179, 309.500000, 313.000000, 14565.625000, 15375.000000, 0.210000
7098.574917, -29.114231, 0.667849, 309.500000, 313.000000, 15490.625000, 16300.000000, 0.210000
7626.151934, -31.976219, 0.690036, 309.500000, 313.000000, 16415.625000, 17225.000000, 0.210000
8051.781287, -34.935902, 0.718679, 309.500000, 313.000000, 17340.625000, 18150.000000, 0.210000
8215.737927, -37.964373, 0.761373, 309.500000, 313.000000, 18265.625000, 19075.000000, 0.210000
7524.185275, -40.986069, 0.846433, 309.500000, 313.000000, 19190.625000, 20000.000000, 0.210000
442.232487, -1.533697, 0.456589, 313.500000, 317.000000, 1500.000000, 2425.000000, 0.210000
701.961287, -2.473425, 0.471462, 313.500000, 317.000000, 2540.625000, 3350.000000, 0.210000
975.934559, -3.480933, 0.484283, 313.500000, 317.000000, 3465.625000, 4275.000000, 0.210000
1278.488189, -4.609064, 0.496541, 313.500000, 317.000000, 4390.625000, 5200.000000, 0.210000
1609.689543, -5.859054, 0.508499, 313.500000, 317.000000, 5315.625000, 6125.000000, 0.210000
1969.344266, -7.231545, 0.520310, 313.500000, 317.000000, 6240.625000, 7050.000000, 0.210000
2357.031947, -8.726800, 0.532085, 313.500000, 317.000000, 7165.625000, 7975.000000, 0.210000
2772.093971, -10.344795, 0.543912, 313.500000, 317.000000, 8090.625000, 8900.000000, 0.210000
3213.584467, -12.085250, 0.555877, 313.500000, 317.000000, 9015.625000, 9825.000000, 0.210000
3680.178964, -13.947631, 0.568070, 313.500000, 317.000000, 9940.625000, 10750.000000, 0.210000
4170.021571, -15.931113, 0.580600, 313.500000, 317.000000, 10865.625000, 11675.000000, 0.210000
4680.471000, -18.034508, 0.593607, 313.500000, 317.000000, 11790.625000, 12600.000000, 0.210000
5207.666484, -20.256147, 0.607285, 313.500000, 317.000000, 12715.625000, 13525.000000, 0.210000
5745.749968, -22.593670, 0.621918, 313.500000, 317.000000, 13640.625000, 14450.000000, 0.210000
6285.380546, -25.043659, 0.637952, 313.500000, 317.000000, 14565.625000, 15375.000000, 0.210000
6810.650706, -27.600976, 0.656144, 313.500000, 317.000000, 15490.625000, 16300.000000, 0.210000
7291.935769, -30.257409, 0.677900, 313.500000, 317.000000, 16415.625000, 17225.000000, 0.210000
7666.551302, -32.998610, 0.706194, 313.500000, 317.000000, 17340.625000, 18150.000000, 0.210000
7772.719564, -35.795673, 0.748719, 313.500000, 317.000000, 18265.625000, 19075.000000, 0.210000
7008.972342, -38.573035, 0.834155, 313.500000, 317.000000, 19190.625000, 20000.000000, 0.210000
456.288550, -1.555976, 0.453029, 317.500000, 321.000000, 1500.000000, 2425.000000, 0.210000
718.491663, -2.487761, 0.467394, 317.500000, 321.000000, 2540.625000, 3350.000000, 0.210000
991.947464, -3.475766, 0.479722, 317.500000, 321.000000, 3465.625000, 4275.000000, 0.210000
1291.266381, -4.572850, 0.491482, 317.500000, 321.000000, 4390.625000, 5200.000000, 0.210000
1616.516636, -5.780246, 0.502936, 317.500000, 321.000000, 5315.625000, 6125.000000, 0.210000
1967.501406, -7.098599, 0.514242, 317.500000, 321.000000, 6240.625000, 7050.000000, 0.210000
2343.794948, -8.528171, 0.525511, 317.500000, 321.000000, 7165.625000, 7975.000000, 0.210000
2744.730289, -10.068936, 0.536833, 317.500000, 321.000000, 8090.625000, 8900.000000, 0.210000
3169.349556, -11.720617, 0.548294, 317.500000, 321.000000, 9015.625000, 9825.000000, 0.210000
3616.311474, -13.482679, 0.559987, 317.500000, 321.000000, 9940.625000, 10750.000000, 0.210000
4083.736603, -15.354295, 0.572022, 317.500000, 321.000000, 10865.625000, 11675.000000, 0.210000
4568.950141, -17.334280, 0.584539, 317.500000, 321.000000, 11790.625000, 12600.000000, 0.210000
5068.042337, -19.420964, 0.597735, 317.500000, 321.000000, 12715.625000, 13525.000000, 0.210000
5575.080803, -21.611985, 0.611898, 317.500000, 321.000000, 13640.625000, 14450.000000, 0.210000
6080.606114, -23.903929, 0.627481, 317.500000, 321.000000, 14565.625000, 15375.000000, 0.210000
6568.508920, -26.291654, 0.645249, 317.500000, 321.000000, 15490.625000, 16300.000000, 0.210000
7008.788651, -28.766950, 0.666625, 317.500000, 321.000000, 16415.625000, 17225.000000, 0.210000
7337.965514, -31.315469, 0.694623, 317.500000, 321.000000, 17340.625000, 18150.000000, 0.210000
7392.209076, -33.908305, 0.737033, 317.500000, 321.000000, 18265.625000, 19075.000000, 0.210000
6562.419489, -36.469894, 0.822898, 317.500000, 321.000000, 19190.625000, 20000.000000, 0.210000
471.327830, -1.581043, 0.449469, 321.500000, 325.000000, 1500.000000, 2425.000000, 0.210000
736.916672, -2.508283, 0.463378, 321.500000, 325.000000, 2540.625000, 3350.000000, 0.210000
1010.979588, -3.481246, 0.475261, 321.500000, 325.000000, 3465.625000, 4275.000000, 0.210000
1308.443617, -4.552952, 0.486567, 321.500000, 325.000000, 4390.625000, 5200.000000, 0.210000
1629.377837, -5.724637, 0.497566, 321.500000, 325.000000, 5315.625000, 6125.000000, 0.210000
1973.582958, -6.996943, 0.508414, 321.500000, 325.000000, 6240.625000, 7050.000000, 0.210000
2340.627904, -8.370133, 0.519224, 321.500000, 325.000000, 7165.625000, 7975.000000, 0.210000
2729.837343, -9.844182, 0.530089, 321.500000, 325.000000, 8090.625000, 8900.000000, 0.210000
3140.241404, -11.418812, 0.541094, 321.500000, 325.000000, 9015.625000, 9825.000000, 0.210000
3570.482003, -13.093488, 0.552334, 321.500000, 325.000000, 9940.625000, 10750.000000, 0.210000
4018.656153, -14.867384, 0.563919, 321.500000, 325.000000, 10865.625000, 11675.000000, 0.210000
4482.055540, -16.739314, 0.575993, 321.500000, 325.000000, 11790.625000, 12600.000000, 0.210000
4956.721423, -18.707608, 0.588755, 321.500000, 325.000000, 12715.625000, 13525.000000, 0.210000
5436.647088, -20.769905, 0.602496, 321.500000, 325.000000, 13640.625000, 14450.000000, 0.210000
5912.254589, -22.922789, 0.617674, 321.500000, 325.000000, 14565.625000, 15375.000000, 0.210000
6367.232735, -25.161120, 0.635065, 321.500000, 325.000000, 15490.625000, 16300.000000, 0.210000
6771.205068, -27.476688, 0.656110, 321.500000, 325.000000, 16415.625000, 17225.000000, 0.210000
7059.896434, -29.855143, 0.683859, 321.500000, 325.000000, 17340.625000, 18150.000000, 0.210000
7067.423708, -32.267580, 0.726201, 321.500000, 325.000000, 18265.625000, 19075.000000, 0.210000
6177.055408, -34.638437, 0.812542, 321.500000, 325.000000, 19190.625000, 20000.000000, 0.210000
487.283252, -1.608560, 0.445900, 325.500000, 329.000000, 1500.000000, 2425.000000, 0.210000
757.088132, -2.534242, 0.459396, 325.500000, 329.000000, 2540.625000, 3350.000000, 0.210000
1032.776192, -3.496082, 0.470876, 325.500000, 329.000000, 3465.625000, 4275.000000, 0.210000
1329.629680, -4.547395, 0.481773, 325.500000, 329.000000, 4390.625000, 5200.000000, 0.210000
1647.718527, -5.689415, 0.492357, 325.500000, 329.000000, 5315.625000, 6125.000000, 0.210000
1986.840977, -6.922785, 0.502790, 325.500000, 329.000000, 6240.625000, 7050.000000, 0.210000
2346.560619, -8.247769, 0.513184, 325.500000, 329.000000, 7165.625000, 7975.000000, 0.210000
2726.193767, -9.664342, 0.523633, 325.500000, 329.000000, 8090.625000, 8900.000000, 0.210000
3124.758545, -11.172224, 0.534225, 325.500000, 329.000000, 9015.625000, 9825.000000, 0.210000
3540.880067, -12.770881, 0.545054, 325.500000, 329.000000, 9940.625000, 10750.000000, 0.210000
3972.631796, -14.459488, 0.556233, 325.500000, 329.000000, 10865.625000, 11675.000000, 0.210000
4417.271903, -16.236857, 0.567907, 325.500000, 329.000000, 11790.625000, 12600.000000, 0.210000
4870.792664, -18.101320, 0.580277, 325.500000, 329.000000, 12715.625000, 13525.000000, 0.210000
5327.113033, -20.050516, 0.593638, 325.500000, 329.000000, 13640.625000, 14450.000000, 0.210000
5776.536543, -22.081027, 0.608454, 325.500000, 329.000000, 14565.625000, 15375.000000, 0.210000
6202.550166, -24.187715, 0.625511, 325.500000, 329.000000, 15490.625000, 16300.000000, 0.210000
6574.401554, -26.362368, 0.646266, 325.500000, 329.000000, 16415.625000, 17225.000000, 0.210000
6827.020190, -28.590638, 0.673808, 325.500000, 329.000000, 17340.625000, 18150.000000, 0.210000
6792.470261, -30.843620, 0.716124, 325.500000, 329.000000, 18265.625000, 19075.000000, 0.210000
5846.388649, -33.045750, 0.802984, 325.500000, 329.000000, 19190.625000, 20000.000000, 0.210000
504.096383, -1.638235, 0.442311, 329.500000, 333.000000, 1500.000000, 2425.000000, 0.210000
778.876964, -2.564991, 0.455436, 329.500000, 333.000000, 2540.625000, 3350.000000, 0.210000
1057.115380, -3.519161, 0.466551, 329.500000, 333.000000, 3465.625000, 4275.000000, 0.210000
1354.484658, -4.554470, 0.477076, 329.500000, 333.000000, 4390.625000, 5200.000000, 0.210000
1671.055584, -5.672153, 0.487285, 329.500000, 333.000000, 5315.625000, 6125.000000, 0.210000
2006.623938, -6.872853, 0.497340, 329.500000, 333.000000, 6240.625000, 7050.000000, 0.210000
2360.747974, -8.156833, 0.507356, 329.500000, 333.000000, 7165.625000, 7975.000000, 0.210000
2732.735648, -9.524068, 0.517428, 329.500000, 333.000000, 8090.625000, 8900.000000, 0.210000
3121.593083, -10.974279, 0.527644, 329.500000, 333.000000, 9015.625000, 9825.000000, 0.210000
3525.928587, -12.506931, 0.538100, 329.500000, 333.000000, 9940.625000, 10750.000000, 0.210000
3943.792076, -14.121199, 0.548911, 329.500000, 333.000000, 10865.625000, 11675.000000, 0.210000
4372.408209, -15.815897, 0.560222, 329.500000, 333.000000, 11790.625000, 12600.000000, 0.210000
4807.720271, -17.589354, 0.572238, 329.500000, 333.000000, 12715.625000, 13525.000000, 0.210000
5243.572890, -19.439210, 0.585257, 329.500000, 333.000000, 13640.625000, 14450.000000, 0.210000
5670.151079, -21.362049, 0.599750, 329.500000, 333.000000, 14565.625000, 15375.000000, 0.210000
6070.739967, -23.352731, 0.616510, 329.500000, 333.000000, 15490.625000, 16300.000000, 0.210000
6414.211320, -25.403044, 0.637013, 329.500000, 333.000000, 16415.625000, 17225.000000, 0.210000
6634.699261, -27.498641, 0.664387, 329.500000, 333.000000, 17340.625000, 18150.000000, 0.210000
