Coefficients constant [W],Coefficients T [W/K],Coefficients j [W/(A/m^2)],T_start [K],T_end [K],j_start [A/m^2],j_end [A/m^2],Area [m^2],Temperature starts,Temperature ends,Current density starts,Current density ends
359.078171, -1.367009, 0.473312, 293.000000, 296.000000, 1500.000000, 2193.750000, 0.210000, 293.000000, 296.000000, 1500.000000, 2193.750000
569.593646, -2.200678, 0.488890, 293.000000, 296.000000, 2309.375000, 3003.125000, 0.210000, 296.500000, 299.500000, 2309.375000, 3003.125000
816.552833, -3.190781, 0.503481, 293.000000, 296.000000, 3118.750000, 3812.500000, 0.210000, 300.000000, 303.000000, 3118.750000, 3812.500000
1100.381489, -4.339328, 0.517547, 293.000000, 296.000000, 3928.125000, 4621.875000, 0.210000, 303.500000, 306.500000, 3928.125000, 4621.875000
1421.225695, -5.647432, 0.531310, 293.000000, 296.000000, 4737.500000, 5431.250000, 0.210000, 307.000000, 310.000000, 4737.500000, 5431.250000
1779.059935, -7.115737, 0.544898, 293.000000, 296.000000, 5546.875000, 6240.625000, 0.210000, 310.500000, 313.500000, 5546.875000, 6240.625000
2173.726503, -8.744599, 0.558399, 293.000000, 296.000000, 6356.250000, 7050.000000, 0.210000, 314.000000, 317.000000, 6356.250000, 7050.000000
2604.945126, -10.534164, 0.571878, 293.000000, 296.000000, 7165.625000, 7859.375000, 0.210000, 317.500000, 320.500000, 7165.625000, 7859.375000
3072.304764, -12.484416, 0.585392, 293.000000, 296.000000, 7975.000000, 8668.750000, 0.210000, 321.000000, 324.000000, 7975.000000, 8668.750000
3575.240281, -14.595187, 0.598992, 293.000000, 296.000000, 8784.375000, 9478.125000, 0.210000, 324.500000, 327.500000, 8784.375000, 9478.125000
4112.992009, -16.866165, 0.612733, 293.000000, 296.000000, 9593.750000, 10287.500000, 0.210000, 328.000000, 331.000000, 9593.750000, 10287.500000
4684.542022, -19.296876, 0.626680, 293.000000, 296.000000, 10403.125000, 11096.875000, 0.210000, 331.500000, 334.500000, 10403.125000, 11096.875000
5288.515227, -21.886655, 0.640907, 293.000000, 296.000000, 11212.500000, 11906.250000, 0.210000, 335.000000, 338.000000, 11212.500000, 11906.250000
5923.023758, -24.634602, 0.655512, 293.000000, 296.000000, 12021.875000, 12715.625000, 0.210000, 338.500000, 341.500000, 12021.875000, 12715.625000
6585.414988, -27.539505, 0.670627, 293.000000, 296.000000, 12831.250000, 13525.000000, 0.210000, 342.000000, 345.000000, 12831.250000, 13525.000000
7271.846850, -30.599719, 0.686438, 293.000000, 296.000000, 13640.625000, 14334.375000, 0.210000, 345.500000, 348.500000, 13640.625000, 14334.375000
7976.534828, -33.812973, 0.703222, 293.000000, 296.000000, 14450.000000, 15143.750000, 0.210000, 349.000000, 352.000000, 14450.000000, 15143.750000
8690.329003, -37.176035, 0.721413, 293.000000, 296.000000, 15259.375000, 15953.125000, 0.210000, 352.500000, 355.500000, 15259.375000, 15953.125000
9397.797988, -40.684102, 0.741744, 293.000000, 296.000000, 16068.750000, 16762.500000, 0.210000, 356.000000, 359.000000, 16068.750000, 16762.500000
10070.582685, -44.329608, 0.765559, 293.000000, 296.000000, 16878.125000, 17571.875000, 0.210000, 359.500000, 362.500000, 16878.125000, 17571.875000
10649.860473, -48.099541, 0.795651, 293.000000, 296.000000, 17687.500000, 18381.250000, 0.210000, 363.000000, 366.000000, 17687.500000, 18381.250000
10988.830211, -51.968336, 0.839001, 293.000000, 296.000000, 18496.875000, 19190.625000, 0.210000, 366.500000, 369.500000, 18496.875000, 19190.625000
10578.702112, -55.872392, 0.919861, 293.000000, 296.000000, 19306.250000, 20000.000000, 0.210000, 370.000000, 373.000000, 19306.250000, 20000.000000
365.723499, -1.369255, 0.470075, 296.500000, 299.500000, 1500.000000, 2193.750000, 0.210000
573.939734, -2.180589, 0.485014, 296.500000, 299.500000, 2309.375000, 3003.125000, 0.210000
815.417950, -3.133991, 0.498955, 296.500000, 299.500000, 3118.750000, 3812.500000, 0.210000
1090.588963, -4.231468, 0.512364, 296.500000, 299.500000, 3928.125000, 4621.875000, 0.210000
1399.600592, -5.474134, 0.525467, 296.500000, 299.500000, 4737.500000, 5431.250000, 0.210000
1742.427017, -6.862635, 0.538393, 296.500000, 299.500000, 5546.875000, 6240.625000, 0.210000
2118.908657, -8.397324, 0.551231, 296.500000, 299.500000, 6356.250000, 7050.000000, 0.210000
2528.761910, -10.078350, 0.564047, 296.500000, 299.500000, 7165.625000, 7859.375000, 0.210000
2971.570849, -11.905693, 0.576897, 296.500000, 299.500000, 7975.000000, 8668.750000, 0.210000
3446.763621, -13.879190, 0.589835, 296.500000, 299.500000, 8784.375000, 9478.125000, 0.210000
3953.571533, -15.998525, 0.602916, 296.500000, 299.500000, 9593.750000, 10287.500000, 0.210000
4490.964559, -18.263226, 0.616205, 296.500000, 299.500000, 10403.125000, 11096.875000, 0.210000
5057.551264, -20.672627, 0.629777, 296.500000, 299.500000, 11212.500000, 11906.250000, 0.210000
5651.421345, -23.225829, 0.643732, 296.500000, 299.500000, 12021.875000, 12715.625000, 0.210000
6269.890651, -25.921619, 0.658203, 296.500000, 299.500000, 12831.250000, 13525.000000, 0.210000
6909.071452, -28.758353, 0.673379, 296.500000, 299.500000, 13640.625000, 14334.375000, 0.210000
7563.110488, -31.733759, 0.689538, 296.500000, 299.500000, 14450.000000, 15143.750000, 0.210000
8222.749095, -34.844605, 0.707122, 296.500000, 299.500000, 15259.375000, 15953.125000, 0.210000
8872.372494, -38.086090, 0.726870, 296.500000, 299.500000, 16068.750000, 16762.500000, 0.210000
9483.284547, -41.450645, 0.750145, 296.500000, 299.500000, 16878.125000, 17571.875000, 0.210000
9995.963558, -44.925260, 0.779771, 296.500000, 299.500000, 17687.500000, 18381.250000, 0.210000
10261.863717, -48.484369, 0.822813, 296.500000, 299.500000, 18496.875000, 19190.625000, 0.210000
9766.148500, -52.064372, 0.903809, 296.500000, 299.500000, 19306.250000, 20000.000000, 0.210000
373.434783, -1.375390, 0.466896, 300.000000, 303.000000, 1500.000000, 2193.750000, 0.210000
580.296228, -2.168480, 0.481255, 300.000000, 303.000000, 2309.375000, 3003.125000, 0.210000
817.533055, -3.090741, 0.494605, 300.000000, 303.000000, 3118.750000, 3812.500000, 0.210000
1085.581141, -4.144180, 0.507416, 300.000000, 303.000000, 3928.125000, 4621.875000, 0.210000
1384.590039, -5.329912, 0.519918, 300.000000, 303.000000, 4737.500000, 5431.250000, 0.210000
1714.533628, -6.648581, 0.532241, 300.000000, 303.000000, 5546.875000, 6240.625000, 0.210000
2075.250451, -8.100542, 0.544474, 300.000000, 303.000000, 6356.250000, 7050.000000, 0.210000
2466.453576, -9.685941, 0.556685, 300.000000, 303.000000, 7165.625000, 7859.375000, 0.210000
2887.722191, -11.404762, 0.568931, 300.000000, 303.000000, 7975.000000, 8668.750000, 0.210000
3338.477727, -13.256839, 0.581266, 300.000000, 303.000000, 8784.375000, 9478.125000, 0.210000
3817.942461, -15.241858, 0.593746, 300.000000, 303.000000, 9593.750000, 10287.500000, 0.210000
4325.074271, -17.359345, 0.606435, 300.000000, 303.000000, 10403.125000, 11096.875000, 0.210000
4858.465379, -19.608635, 0.619412, 300.000000, 303.000000, 11212.500000, 11906.250000, 0.210000
5416.183046, -21.988830, 0.632776, 300.000000, 303.000000, 12021.875000, 12715.625000, 0.210000
5995.511595, -24.498715, 0.646662, 300.000000, 303.000000, 12831.250000, 13525.000000, 0.210000
6592.517636, -27.136648, 0.661260, 300.000000, 303.000000, 13640.625000, 14334.375000, 0.210000
7201.279162, -29.900356, 0.676854, 300.000000, 303.000000, 14450.000000, 15143.750000, 0.210000
7812.428765, -32.786606, 0.693890, 300.000000, 303.000000, 15259.375000, 15953.125000, 0.210000
8410.168272, -35.790598, 0.713115, 300.000000, 303.000000, 16068.750000, 16762.500000, 0.210000
8965.464512, -38.904764, 0.735908, 300.000000, 303.000000, 16878.125000, 17571.875000, 0.210000
9418.096704, -42.116092, 0.765126, 300.000000, 303.000000, 17687.500000, 18381.250000, 0.210000
9617.774377, -45.399018, 0.807919, 300.000000, 303.000000, 18496.875000, 19190.625000, 0.210000
9043.614266, -48.689940, 0.889111, 300.000000, 303.000000, 19306.250000, 20000.000000, 0.210000
382.125448, -1.384955, 0.463761, 303.500000, 306.500000, 1500.000000, 2193.750000, 0.210000
588.485888, -2.163410, 0.477594, 303.500000, 306.500000, 2309.375000, 3003.125000, 0.210000
822.597652, -3.059436, 0.490405, 303.500000, 306.500000, 3118.750000, 3812.500000, 0.210000
1084.901677, -4.075041, 0.502672, 303.500000, 306.500000, 3928.125000, 4621.875000, 0.210000
1375.549251, -5.211338, 0.514625, 303.500000, 306.500000, 4737.500000, 5431.250000, 0.210000
1694.513952, -6.468973, 0.526397, 303.500000, 306.500000, 5546.875000, 6240.625000, 0.210000
2041.632446, -7.848299, 0.538079, 303.500000, 306.500000, 6356.250000, 7050.000000, 0.210000
2416.614472, -9.349465, 0.549739, 303.500000, 306.500000, 7165.625000, 7859.375000, 0.210000
2819.034332, -10.972453, 0.561433, 303.500000, 306.500000, 7975.000000, 8668.750000, 0.210000
3248.306741, -12.717097, 0.573218, 303.500000, 306.500000, 8784.375000, 9478.125000, 0.210000
3703.644948, -14.583082, 0.585149, 303.500000, 306.500000, 9593.750000, 10287.500000, 0.210000
4183.994733, -16.569936, 0.597293, 303.500000, 306.500000, 10403.125000, 11096.875000, 0.210000
4687.931975, -18.676994, 0.609727, 303.500000, 306.500000, 11212.500000, 11906.250000, 0.210000
5213.501500, -20.903356, 0.622552, 303.500000, 306.500000, 12021.875000, 12715.625000, 0.210000
5757.956105, -23.247810, 0.635906, 303.500000, 306.500000, 12831.250000, 13525.000000, 0.210000
6317.316738, -25.708710, 0.649980, 303.500000, 306.500000, 13640.625000, 14334.375000, 0.210000
6885.592647, -28.283787, 0.665062, 303.500000, 306.500000, 14450.000000, 15143.750000, 0.210000
7453.307680, -30.969805, 0.681601, 303.500000, 306.500000, 15259.375000, 15953.125000, 0.210000
8004.480271, -33.761966, 0.700357, 303.500000, 306.500000, 16068.750000, 16762.500000, 0.210000
8509.740210, -36.652701, 0.722720, 303.500000, 306.500000, 16878.125000, 17571.875000, 0.210000
8908.167640, -39.628999, 0.751585, 303.500000, 306.500000, 17687.500000, 18381.250000, 0.210000
9047.727422, -42.665294, 0.794180, 303.500000, 306.500000, 18496.875000, 19190.625000, 0.210000
8401.489555, -45.697986, 0.875622, 303.500000, 306.500000, 19306.250000, 20000.000000, 0.210000
391.719765, -1.397552, 0.460659, 307.000000, 310.000000, 1500.000000, 2193.750000, 0.210000
598.353684, -2.164563, 0.474012, 307.000000, 310.000000, 2309.375000, 3003.125000, 0.210000
830.348901, -3.038691, 0.486333, 307.000000, 310.000000, 3118.750000, 3812.500000, 0.210000
1088.151414, -4.021945, 0.498103, 307.000000, 310.000000, 3928.125000, 4621.875000, 0.210000
1371.914248, -5.115438, 0.509555, 307.000000, 310.000000, 4737.500000, 5431.250000, 0.210000
1681.610676, -6.319816, 0.520825, 307.000000, 310.000000, 5546.875000, 6240.625000, 0.210000
2017.075491, -7.635433, 0.532003, 307.000000, 310.000000, 6356.250000, 7050.000000, 0.210000
2378.015101, -9.062437, 0.543158, 307.000000, 310.000000, 7165.625000, 7859.375000, 0.210000
2763.998923, -10.600809, 0.554349, 307.000000, 310.000000, 7975.000000, 8668.750000, 0.210000
3174.434955, -12.250384, 0.565631, 307.000000, 310.000000, 8784.375000, 9478.125000, 0.210000
3608.527418, -14.010848, 0.577062, 307.000000, 310.000000, 9593.750000, 10287.500000, 0.210000
4065.209994, -15.881728, 0.588707, 307.000000, 310.000000, 10403.125000, 11096.875000, 0.210000
4543.042221, -17.862359, 0.600645, 307.000000, 310.000000, 11212.500000, 11906.250000, 0.210000
5040.046487, -19.951840, 0.612980, 307.000000, 310.000000, 12021.875000, 12715.625000, 0.210000
5553.444065, -22.148960, 0.625849, 307.000000, 310.000000, 12831.250000, 13525.000000, 0.210000
6079.210241, -24.452075, 0.639447, 307.000000, 310.000000, 13640.625000, 14334.375000, 0.210000
6611.285516, -26.858912, 0.654064, 307.000000, 310.000000, 14450.000000, 15143.750000, 0.210000
7140.084998, -29.366238, 0.670156, 307.000000, 310.000000, 15259.375000, 15953.125000, 0.210000
7649.443721, -31.969254, 0.688488, 307.000000, 310.000000, 16068.750000, 16762.500000, 0.210000
8109.654446, -34.660391, 0.710471, 307.000000, 310.000000, 16878.125000, 17571.875000, 0.210000
8459.098231, -37.426638, 0.739029, 307.000000, 310.000000, 17687.500000, 18381.250000, 0.210000
8543.995273, -40.242429, 0.781475, 307.000000, 310.000000, 18496.875000, 19190.625000, 0.210000
7831.368833, -43.044164, 0.863214, 307.000000, 310.000000, 19306.250000, 20000.000000, 0.210000
402.151342, -1.412836, 0.457579, 310.500000, 313.500000, 1500.000000, 2193.750000, 0.210000
609.763698, -2.171228, 0.470496, 310.500000, 313.500000, 2309.375000, 3003.125000, 0.210000
840.556370, -3.027301, 0.482368, 310.500000, 313.500000, 3118.750000, 3812.500000, 0.210000
1094.980414, -3.983062, 0.493684, 310.500000, 313.500000, 3928.125000, 4621.875000, 0.210000
1373.190593, -5.039626, 0.504679, 310.500000, 313.500000, 4737.500000, 5431.250000, 0.210000
1675.159875, -6.197638, 0.515489, 310.500000, 313.500000, 5546.875000, 6240.625000, 0.210000
2000.721181, -7.457452, 0.526206, 310.500000, 313.500000, 6356.250000, 7050.000000, 0.210000
2349.577585, -8.819215, 0.536901, 310.500000, 313.500000, 7165.625000, 7859.375000, 0.210000
2721.293620, -10.282910, 0.547631, 310.500000, 313.500000, 7975.000000, 8668.750000, 0.210000
3115.270569, -11.848371, 0.558453, 310.500000, 313.500000, 8784.375000, 9478.125000, 0.210000
3530.703623, -13.515284, 0.569426, 310.500000, 313.500000, 9593.750000, 10287.500000, 0.210000
3966.514369, -15.283176, 0.580615, 310.500000, 313.500000, 10403.125000, 11096.875000, 0.210000
4421.245999, -17.151381, 0.592102, 310.500000, 313.500000, 11212.500000, 11906.250000, 0.210000
4892.898467, -19.119001, 0.603989, 310.500000, 313.500000, 12021.875000, 12715.625000, 0.210000
5378.661521, -21.184822, 0.616416, 310.500000, 313.500000, 12831.250000, 13525.000000, 0.210000
5874.464784, -23.347201, 0.629581, 310.500000, 313.500000, 13640.625000, 14334.375000, 0.210000
6374.180012, -25.603865, 0.643776, 310.500000, 313.500000, 14450.000000, 15143.750000, 0.210000
6868.113569, -27.951582, 0.659462, 310.500000, 313.500000, 15259.375000, 15953.125000, 0.210000
7339.917096, -30.385551, 0.677415, 310.500000, 313.500000, 16068.750000, 16762.500000, 0.210000
7759.546316, -32.898204, 0.699060, 310.500000, 313.500000, 16878.125000, 17571.875000, 0.210000
8064.683209, -35.476531, 0.727354, 310.500000, 313.500000, 17687.500000, 18381.250000, 0.210000
8099.803306, -38.094964, 0.769694, 310.500000, 313.500000, 18496.875000, 19190.625000, 0.210000
7325.883130, -40.689904, 0.851772, 310.500000, 313.500000, 19306.250000, 20000.000000, 0.210000
413.361842, -1.430505, 0.454511, 314.000000, 317.000000, 1500.000000, 2193.750000, 0.210000
622.596511, -2.182788, 0.467030, 314.000000, 317.000000, 2309.375000, 3003.125000, 0.210000
853.017595, -3.024216, 0.478494, 314.000000, 317.000000, 3118.750000, 3812.500000, 0.210000
1105.081213, -3.956798, 0.489394, 314.000000, 317.000000, 3928.125000, 4621.875000, 0.210000
1378.943861, -4.981648, 0.499970, 314.000000, 317.000000, 4737.500000, 5431.250000, 0.210000
1674.578206, -6.099411, 0.510359, 314.000000, 317.000000, 5546.875000, 6240.625000, 0.210000
1991.815293, -7.310440, 0.520655, 314.000000, 317.000000, 6356.250000, 7050.000000, 0.210000
2330.354867, -8.614884, 0.530927, 314.000000, 317.000000, 7165.625000, 7859.375000, 0.210000
2689.756575, -10.012724, 0.541235, 314.000000, 317.000000, 7975.000000, 8668.750000, 0.210000
3069.414983, -11.503796, 0.551637, 314.000000, 317.000000, 8784.375000, 9478.125000, 0.210000
3468.516255, -13.087785, 0.562190, 314.000000, 317.000000, 9593.750000, 10287.500000, 0.210000
3885.969878, -14.764217, 0.572963, 314.000000, 317.000000, 10403.125000, 11096.875000, 0.210000
4320.302706, -16.532428, 0.584036, 314.000000, 317.000000, 11212.500000, 11906.250000, 0.210000
4769.492252, -18.391519, 0.595514, 314.000000, 317.000000, 12021.875000, 12715.625000, 0.210000
5230.696740, -20.340276, 0.607539, 314.000000, 317.000000, 12831.250000, 13525.000000, 0.210000
5699.800133, -22.377055, 0.620309, 314.000000, 317.000000, 13640.625000, 14334.375000, 0.210000
6170.605440, -24.499585, 0.634121, 314.000000, 317.000000, 14450.000000, 15143.750000, 0.210000
6633.310282, -26.704632, 0.649441, 314.000000, 317.000000, 15259.375000, 15953.125000, 0.210000
7071.382906, -28.987397, 0.667053, 314.000000, 317.000000, 16068.750000, 16762.500000, 0.210000
7454.441999, -31.340311, 0.688398, 314.000000, 317.000000, 16878.125000, 17571.875000, 0.210000
7719.470461, -33.750363, 0.716468, 314.000000, 317.000000, 17687.500000, 18381.250000, 0.210000
7709.199156, -36.191987, 0.758741, 314.000000, 317.000000, 18496.875000, 19190.625000, 0.210000
6878.557871, -38.601583, 0.841198, 314.000000, 317.000000, 19306.250000, 20000.000000, 0.210000
425.299895, -1.450296, 0.451447, 317.500000, 320.500000, 1500.000000, 2193.750000, 0.210000
636.746965, -2.198701, 0.463604, 317.500000, 320.500000, 2309.375000, 3003.125000, 0.210000
867.554300, -3.028519, 0.474694, 317.500000, 320.500000, 3118.750000, 3812.500000, 0.210000
1118.183077, -3.941758, 0.485214, 317.500000, 320.500000, 3928.125000, 4621.875000, 0.210000
1388.791530, -4.939533, 0.495406, 317.500000, 320.500000, 4737.500000, 5431.250000, 0.210000
1679.352021, -6.022487, 0.505409, 317.500000, 320.500000, 5546.875000, 6240.625000, 0.210000
1989.693722, -7.190976, 0.515318, 317.500000, 320.500000, 6356.250000, 7050.000000, 0.210000
2319.513046, -8.445146, 0.525203, 317.500000, 320.500000, 7165.625000, 7859.375000, 0.210000
2668.364756, -9.784980, 0.535125, 317.500000, 320.500000, 7975.000000, 8668.750000, 0.210000
3035.636701, -11.210313, 0.545140, 317.500000, 320.500000, 8784.375000, 9478.125000, 0.210000
3420.506017, -12.720831, 0.555310, 317.500000, 320.500000, 9593.750000, 10287.500000, 0.210000
3821.870094, -14.316059, 0.565701, 317.500000, 320.500000, 10403.125000, 11096.875000, 0.210000
4238.239442, -15.995333, 0.576396, 317.500000, 320.500000, 11212.500000, 11906.250000, 0.210000
4667.569140, -17.757754, 0.587501, 317.500000, 320.500000, 12021.875000, 12715.625000, 0.210000
5106.985884, -19.602109, 0.599158, 317.500000, 320.500000, 12831.250000, 13525.000000, 0.210000
5552.327978, -21.526753, 0.611568, 317.500000, 320.500000, 13640.625000, 14334.375000, 0.210000
5997.329683, -23.529415, 0.625033, 317.500000, 320.500000, 14450.000000, 15143.750000, 0.210000
6432.079879, -25.606862, 0.640022, 317.500000, 320.500000, 15259.375000, 15953.125000, 0.210000
6839.863415, -27.754294, 0.657328, 317.500000, 320.500000, 16068.750000, 16762.500000, 0.210000
7189.961946, -29.964142, 0.678409, 317.500000, 320.500000, 16878.125000, 17571.875000, 0.210000
7418.659290, -32.223396, 0.706288, 317.500000, 320.500000, 17687.500000, 18381.250000, 0.210000
7366.941647, -34.506489, 0.748530, 317.500000, 320.500000, 18496.875000, 19190.625000, 0.210000
6483.692064, -36.749822, 0.831400, 317.500000, 320.500000, 19306.250000, 20000.000000, 0.210000
437.920175, -1.471977, 0.448379, 321.000000, 324.000000, 1500.000000, 2193.750000, 0.210000
652.122276, -2.218494, 0.460206, 321.000000, 324.000000, 2309.375000, 3003.125000, 0.210000
884.009179, -3.039407, 0.470954, 321.000000, 324.000000, 3118.750000, 3812.500000, 0.210000
1134.047121, -3.936722, 0.481126, 321.000000, 324.000000, 3928.125000, 4621.875000, 0.210000
1402.396073, -4.911556, 0.490966, 321.000000, 324.000000, 4737.500000, 5431.250000, 0.210000
1689.028094, -5.964552, 0.500615, 321.000000, 324.000000, 5546.875000, 6240.625000, 0.210000
1993.770481, -7.096064, 0.510169, 321.000000, 324.000000, 6356.250000, 7050.000000, 0.210000
2316.316316, -8.306240, 0.519699, 321.000000, 324.000000, 7165.625000, 7859.375000, 0.210000
2656.215477, -9.595063, 0.529266, 321.000000, 324.000000, 7975.000000, 8668.750000, 0.210000
3012.849097, -10.962367, 0.538928, 321.000000, 324.000000, 8784.375000, 9478.125000, 0.210000
3385.385284, -12.407838, 0.548745, 321.000000, 324.000000, 9593.750000, 10287.500000, 0.210000
3772.709330, -13.931002, 0.558786, 321.000000, 324.000000, 10403.125000, 11096.875000, 0.210000
