Coefficients constant [W],Coefficients T [W/K],Coefficients j [W/(A/m^2)],T_start [K],T_end [K],j_start [A/m^2],j_end [A/m^2],Area [m^2],Temperature starts,Temperature ends,Current density starts,Current density ends
362.577329, -0.374610, 0.275793, 1073.000000, 1079.000000, 2000.000000, 2240.000000, 0.210000, 1073.000000, 1079.000000, 2000.000000, 2240.000000
448.431242, -0.463337, 0.280067, 1073.000000, 1079.000000, 2260.000000, 2500.000000, 0.210000, 1079.500000, 1085.500000, 2260.000000, 2500.000000
542.507202, -0.560576, 0.284273, 1073.000000, 1079.000000, 2520.000000, 2760.000000, 0.210000, 1086.000000, 1092.000000, 2520.000000, 2760.000000
644.513827, -0.666036, 0.288413, 1073.000000, 1079.000000, 2780.000000, 3020.000000, 0.210000, 1092.500000, 1098.500000, 2780.000000, 3020.000000
754.164474, -0.779426, 0.292491, 1073.000000, 1079.000000, 3040.000000, 3280.000000, 0.210000, 1099.000000, 1105.000000, 3040.000000, 3280.000000
871.182257, -0.900467, 0.296511, 1073.000000, 1079.000000, 3300.000000, 3540.000000, 0.210000, 1105.500000, 1111.500000, 3300.000000, 3540.000000
995.303876, -1.028894, 0.300473, 1073.000000, 1079.000000, 3560.000000, 3800.000000, 0.210000, 1112.000000, 1118.000000, 3560.000000, 3800.000000
1126.282339, -1.164458, 0.304381, 1073.000000, 1079.000000, 3820.000000, 4060.000000, 0.210000, 1118.500000, 1124.500000, 3820.000000, 4060.000000
1263.888696, -1.306929, 0.308237, 1073.000000, 1079.000000, 4080.000000, 4320.000000, 0.210000, 1125.000000, 1131.000000, 4080.000000, 4320.000000
1407.912949, -1.456094, 0.312043, 1073.000000, 1079.000000, 4340.000000, 4580.000000, 0.210000, 1131.500000, 1137.500000, 4340.000000, 4580.000000
1558.164272, -1.611760, 0.315800, 1073.000000, 1079.000000, 4600.000000, 4840.000000, 0.210000, 1138.000000, 1144.000000, 4600.000000, 4840.000000
1714.470706, -1.773756, 0.319512, 1073.000000, 1079.000000, 4860.000000, 5100.000000, 0.210000, 1144.500000, 1150.500000, 4860.000000, 5100.000000
1876.678447, -1.941924, 0.323180, 1073.000000, 1079.000000, 5120.000000, 5360.000000, 0.210000, 1151.000000, 1157.000000, 5120.000000, 5360.000000
2044.650858, -2.116129, 0.326806, 1073.000000, 1079.000000, 5380.000000, 5620.000000, 0.210000, 1157.500000, 1163.500000, 5380.000000, 5620.000000
2218.267305, -2.296247, 0.330392, 1073.000000, 1079.000000, 5640.000000, 5880.000000, 0.210000, 1164.000000, 1170.000000, 5640.000000, 5880.000000
2397.421884, -2.482171, 0.333941, 1073.000000, 1079.000000, 5900.000000, 6140.000000, 0.210000, 1170.500000, 1176.500000, 5900.000000, 6140.000000
2582.022115, -2.673810, 0.337453, 1073.000000, 1079.000000, 6160.000000, 6400.000000, 0.210000, 1177.000000, 1183.000000, 6160.000000, 6400.000000
2771.987651, -2.871080, 0.340932, 1073.000000, 1079.000000, 6420.000000, 6660.000000, 0.210000, 1183.500000, 1189.500000, 6420.000000, 6660.000000
2967.249019, -3.073913, 0.344378, 1073.000000, 1079.000000, 6680.000000, 6920.000000, 0.210000, 1190.000000, 1196.000000, 6680.000000, 6920.000000
3167.746441, -3.282247, 0.347794, 1073.000000, 1079.000000, 6940.000000, 7180.000000, 0.210000, 1196.500000, 1202.500000, 6940.000000, 7180.000000
3373.428723, -3.496031, 0.351181, 1073.000000, 1079.000000, 7200.000000, 7440.000000, 0.210000, 1203.000000, 1209.000000, 7200.000000, 7440.000000
3584.252241, -3.715221, 0.354540, 1073.000000, 1079.000000, 7460.000000, 7700.000000, 0.210000, 1209.500000, 1215.500000, 7460.000000, 7700.000000
3800.180018, -3.939779, 0.357873, 1073.000000, 1079.000000, 7720.000000, 7960.000000, 0.210000, 1216.000000, 1222.000000, 7720.000000, 7960.000000
4021.180888, -4.169674, 0.361181, 1073.000000, 1079.000000, 7980.000000, 8220.000000, 0.210000, 1222.500000, 1228.500000, 7980.000000, 8220.000000
4247.228745, -4.404880, 0.364466, 1073.000000, 1079.000000, 8240.000000, 8480.000000, 0.210000, 1229.000000, 1235.000000, 8240.000000, 8480.000000
4478.301882, -4.645374, 0.367728, 1073.000000, 1079.000000, 8500.000000, 8740.000000, 0.210000, 1235.500000, 1241.500000, 8500.000000, 8740.000000
4714.382398, -4.891138, 0.370970, 1073.000000, 1079.000000, 8760.000000, 9000.000000, 0.210000, 1242.000000, 1248.000000, 8760.000000, 9000.000000
4955.455676, -5.142159, 0.374191, 1073.000000, 1079.000000, 9020.000000, 9260.000000, 0.210000, 1248.500000, 1254.500000, 9020.000000, 9260.000000
5201.509932, -5.398422, 0.377393, 1073.000000, 1079.000000, 9280.000000, 9520.000000, 0.210000, 1255.000000, 1261.000000, 9280.000000, 9520.000000
5442.748757, -5.649734, 0.380456, 1073.000000, 1079.000000, 9540.000000, 9760.000000, 0.210000, 1261.500000, 1267.000000, 9540.000000, 9760.000000
5678.695219, -5.895571, 0.383380, 1073.000000, 1079.000000, 9780.000000, 10000.000000, 0.210000, 1267.500000, 1273.000000, 9780.000000, 10000.000000
340.901369, -0.350517, 0.273753, 1079.500000, 1085.500000, 2000.000000, 2240.000000, 0.210000
421.634925, -0.433543, 0.277816, 1079.500000, 1085.500000, 2260.000000, 2500.000000, 0.210000
510.211426, -0.524645, 0.281817, 1079.500000, 1085.500000, 2520.000000, 2760.000000, 0.210000
606.383301, -0.623577, 0.285760, 1079.500000, 1085.500000, 2780.000000, 3020.000000, 0.210000
709.902930, -0.730089, 0.289648, 1079.500000, 1085.500000, 3040.000000, 3280.000000, 0.210000
820.527028, -0.843937, 0.293484, 1079.500000, 1085.500000, 3300.000000, 3540.000000, 0.210000
938.020195, -0.964886, 0.297268, 1079.500000, 1085.500000, 3560.000000, 3800.000000, 0.210000
1062.157672, -1.092710, 0.301004, 1079.500000, 1085.500000, 3820.000000, 4060.000000, 0.210000
1192.727345, -1.227197, 0.304693, 1079.500000, 1085.500000, 4080.000000, 4320.000000, 0.210000
1329.531091, -1.368148, 0.308336, 1079.500000, 1085.500000, 4340.000000, 4580.000000, 0.210000
1472.385553, -1.515379, 0.311936, 1079.500000, 1085.500000, 4600.000000, 4840.000000, 0.210000
1621.122426, -1.668721, 0.315494, 1079.500000, 1085.500000, 4860.000000, 5100.000000, 0.210000
1775.588356, -1.828021, 0.319012, 1079.500000, 1085.500000, 5120.000000, 5360.000000, 0.210000
1935.644547, -1.993140, 0.322492, 1079.500000, 1085.500000, 5380.000000, 5620.000000, 0.210000
2101.166133, -2.163951, 0.325934, 1079.500000, 1085.500000, 5640.000000, 5880.000000, 0.210000
2272.041400, -2.340344, 0.329342, 1079.500000, 1085.500000, 5900.000000, 6140.000000, 0.210000
2448.170915, -2.522218, 0.332716, 1079.500000, 1085.500000, 6160.000000, 6400.000000, 0.210000
2629.466584, -2.709485, 0.336058, 1079.500000, 1085.500000, 6420.000000, 6660.000000, 0.210000
2815.850717, -2.902067, 0.339369, 1079.500000, 1085.500000, 6680.000000, 6920.000000, 0.210000
3007.255080, -3.099895, 0.342651, 1079.500000, 1085.500000, 6940.000000, 7180.000000, 0.210000
3203.619993, -3.302909, 0.345905, 1079.500000, 1085.500000, 7200.000000, 7440.000000, 0.210000
3404.893467, -3.511058, 0.349133, 1079.500000, 1085.500000, 7460.000000, 7700.000000, 0.210000
3611.030397, -3.724297, 0.352336, 1079.500000, 1085.500000, 7720.000000, 7960.000000, 0.210000
3821.991805, -3.942584, 0.355515, 1079.500000, 1085.500000, 7980.000000, 8220.000000, 0.210000
4037.744158, -4.165889, 0.358671, 1079.500000, 1085.500000, 8240.000000, 8480.000000, 0.210000
4258.258737, -4.394180, 0.361806, 1079.500000, 1085.500000, 8500.000000, 8740.000000, 0.210000
4483.511064, -4.627434, 0.364919, 1079.500000, 1085.500000, 8760.000000, 9000.000000, 0.210000
4713.480393, -4.865631, 0.368014, 1079.500000, 1085.500000, 9020.000000, 9260.000000, 0.210000
4948.149251, -5.108752, 0.371089, 1079.500000, 1085.500000, 9280.000000, 9520.000000, 0.210000
5178.172460, -5.347122, 0.374030, 1079.500000, 1085.500000, 9540.000000, 9760.000000, 0.210000
5403.096463, -5.580247, 0.376838, 1079.500000, 1085.500000, 9780.000000, 10000.000000, 0.210000
320.747029, -0.328228, 0.271844, 1086.000000, 1092.000000, 2000.000000, 2240.000000, 0.210000
396.653029, -0.405913, 0.275709, 1086.000000, 1092.000000, 2260.000000, 2500.000000, 0.210000
480.020924, -0.491243, 0.279516, 1086.000000, 1092.000000, 2520.000000, 2760.000000, 0.210000
570.642467, -0.584009, 0.283271, 1086.000000, 1092.000000, 2780.000000, 3020.000000, 0.210000
668.306244, -0.684001, 0.286977, 1086.000000, 1092.000000, 3040.000000, 3280.000000, 0.210000
772.801362, -0.791008, 0.290636, 1086.000000, 1092.000000, 3300.000000, 3540.000000, 0.210000
883.920570, -0.904824, 0.294249, 1086.000000, 1092.000000, 3560.000000, 3800.000000, 0.210000
1001.462820, -1.025249, 0.297819, 1086.000000, 1092.000000, 3820.000000, 4060.000000, 0.210000
1125.235296, -1.152089, 0.301346, 1086.000000, 1092.000000, 4080.000000, 4320.000000, 0.210000
1255.054931, -1.285164, 0.304833, 1086.000000, 1092.000000, 4340.000000, 4580.000000, 0.210000
1390.749474, -1.424300, 0.308281, 1086.000000, 1092.000000, 4600.000000, 4840.000000, 0.210000
1532.158159, -1.569338, 0.311691, 1086.000000, 1092.000000, 4860.000000, 5100.000000, 0.210000
1679.132025, -1.720129, 0.315065, 1086.000000, 1092.000000, 5120.000000, 5360.000000, 0.210000
1831.533954, -1.876536, 0.318403, 1086.000000, 1092.000000, 5380.000000, 5620.000000, 0.210000
1989.238481, -2.038435, 0.321707, 1086.000000, 1092.000000, 5640.000000, 5880.000000, 0.210000
2152.131429, -2.205711, 0.324979, 1086.000000, 1092.000000, 5900.000000, 6140.000000, 0.210000
2320.109410, -2.378262, 0.328220, 1086.000000, 1092.000000, 6160.000000, 6400.000000, 0.210000
2493.079233, -2.555994, 0.331431, 1086.000000, 1092.000000, 6420.000000, 6660.000000, 0.210000
2670.957257, -2.738824, 0.334613, 1086.000000, 1092.000000, 6680.000000, 6920.000000, 0.210000
2853.668712, -2.926678, 0.337767, 1086.000000, 1092.000000, 6940.000000, 7180.000000, 0.210000
3041.147005, -3.119489, 0.340896, 1086.000000, 1092.000000, 7200.000000, 7440.000000, 0.210000
3233.333041, -3.317197, 0.343999, 1086.000000, 1092.000000, 7460.000000, 7700.000000, 0.210000
3430.174560, -3.519752, 0.347078, 1086.000000, 1092.000000, 7720.000000, 7960.000000, 0.210000
3631.625501, -3.727107, 0.350134, 1086.000000, 1092.000000, 7980.000000, 8220.000000, 0.210000
3837.645402, -3.939221, 0.353169, 1086.000000, 1092.000000, 8240.000000, 8480.000000, 0.210000
4048.198844, -4.156060, 0.356182, 1086.000000, 1092.000000, 8500.000000, 8740.000000, 0.210000
4263.254925, -4.377592, 0.359176, 1086.000000, 1092.000000, 8760.000000, 9000.000000, 0.210000
4482.786787, -4.603791, 0.362150, 1086.000000, 1092.000000, 9020.000000, 9260.000000, 0.210000
4706.771171, -4.834634, 0.365106, 1086.000000, 1092.000000, 9280.000000, 9520.000000, 0.210000
4926.284800, -5.060931, 0.367932, 1086.000000, 1092.000000, 9540.000000, 9760.000000, 0.210000
5140.893957, -5.282210, 0.370631, 1086.000000, 1092.000000, 9780.000000, 10000.000000, 0.210000
302.023169, -0.307621, 0.270060, 1092.500000, 1098.500000, 2000.000000, 2240.000000, 0.210000
373.389132, -0.380314, 0.273736, 1092.500000, 1098.500000, 2260.000000, 2500.000000, 0.210000
451.838264, -0.460227, 0.277360, 1092.500000, 1098.500000, 2520.000000, 2760.000000, 0.210000
537.196913, -0.547188, 0.280936, 1092.500000, 1098.500000, 2780.000000, 3020.000000, 0.210000
629.286389, -0.641017, 0.284468, 1092.500000, 1098.500000, 3040.000000, 3280.000000, 0.210000
727.925993, -0.741537, 0.287958, 1092.500000, 1098.500000, 3300.000000, 3540.000000, 0.210000
832.935658, -0.848569, 0.291407, 1092.500000, 1098.500000, 3560.000000, 3800.000000, 0.210000
944.138209, -0.961938, 0.294817, 1092.500000, 1098.500000, 3820.000000, 4060.000000, 0.210000
1061.361249, -1.081471, 0.298190, 1092.500000, 1098.500000, 4080.000000, 4320.000000, 0.210000
1184.438675, -1.207005, 0.301526, 1092.500000, 1098.500000, 4340.000000, 4580.000000, 0.210000
1313.211852, -1.338383, 0.304827, 1092.500000, 1098.500000, 4600.000000, 4840.000000, 0.210000
1447.530474, -1.475455, 0.308094, 1092.500000, 1098.500000, 4860.000000, 5100.000000, 0.210000
1587.253144, -1.618081, 0.311328, 1092.500000, 1098.500000, 5120.000000, 5360.000000, 0.210000
1732.247698, -1.766130, 0.314530, 1092.500000, 1098.500000, 5380.000000, 5620.000000, 0.210000
1882.391336, -1.919481, 0.317701, 1092.500000, 1098.500000, 5640.000000, 5880.000000, 0.210000
2037.570563, -2.078021, 0.320842, 1092.500000, 1098.500000, 5900.000000, 6140.000000, 0.210000
2197.681006, -2.241646, 0.323954, 1092.500000, 1098.500000, 6160.000000, 6400.000000, 0.210000
2362.627107, -2.410262, 0.327039, 1092.500000, 1098.500000, 6420.000000, 6660.000000, 0.210000
2532.321745, -2.583782, 0.330097, 1092.500000, 1098.500000, 6680.000000, 6920.000000, 0.210000
2706.685800, -2.762129, 0.333130, 1092.500000, 1098.500000, 6940.000000, 7180.000000, 0.210000
2885.647672, -2.945230, 0.336137, 1092.500000, 1098.500000, 7200.000000, 7440.000000, 0.210000
3069.142787, -3.133022, 0.339121, 1092.500000, 1098.500000, 7460.000000, 7700.000000, 0.210000
3257.113094, -3.325448, 0.342083, 1092.500000, 1098.500000, 7720.000000, 7960.000000, 0.210000
3449.506561, -3.522456, 0.345023, 1092.500000, 1098.500000, 7980.000000, 8220.000000, 0.210000
3646.276693, -3.724000, 0.347941, 1092.500000, 1098.500000, 8240.000000, 8480.000000, 0.210000
3847.382054, -3.930038, 0.350840, 1092.500000, 1098.500000, 8500.000000, 8740.000000, 0.210000
4052.785827, -4.140535, 0.353720, 1092.500000, 1098.500000, 8760.000000, 9000.000000, 0.210000
4262.455384, -4.355458, 0.356581, 1092.500000, 1098.500000, 9020.000000, 9260.000000, 0.210000
4476.361896, -4.574778, 0.359424, 1092.500000, 1098.500000, 9280.000000, 9520.000000, 0.210000
4685.978733, -4.789760, 0.362142, 1092.500000, 1098.500000, 9540.000000, 9760.000000, 0.210000
4890.888953, -4.999954, 0.364738, 1092.500000, 1098.500000, 9780.000000, 10000.000000, 0.210000
284.638878, -0.288576, 0.268390, 1099.000000, 1105.000000, 2000.000000, 2240.000000, 0.210000
351.744268, -0.356613, 0.271889, 1099.000000, 1105.000000, 2260.000000, 2500.000000, 0.210000
425.560114, -0.431456, 0.275340, 1099.000000, 1105.000000, 2520.000000, 2760.000000, 0.210000
505.942707, -0.512962, 0.278747, 1099.000000, 1105.000000, 2780.000000, 3020.000000, 0.210000
592.742331, -0.600984, 0.282113, 1099.000000, 1105.000000, 3040.000000, 3280.000000, 0.210000
685.805704, -0.695370, 0.285442, 1099.000000, 1105.000000, 3300.000000, 3540.000000, 0.210000
784.978152, -0.795968, 0.288734, 1099.000000, 1105.000000, 3560.000000, 3800.000000, 0.210000
890.105540, -0.902626, 0.291991, 1099.000000, 1105.000000, 3820.000000, 4060.000000, 0.210000
1001.035927, -1.015194, 0.295215, 1099.000000, 1105.000000, 4080.000000, 4320.000000, 0.210000
1117.620976, -1.133526, 0.298406, 1099.000000, 1105.000000, 4340.000000, 4580.000000, 0.210000
1239.717107, -1.257480, 0.301566, 1099.000000, 1105.000000, 4600.000000, 4840.000000, 0.210000
1367.186420, -1.386921, 0.304694, 1099.000000, 1105.000000, 4860.000000, 5100.000000, 0.210000
1499.897395, -1.521718, 0.307793, 1099.000000, 1105.000000, 5120.000000, 5360.000000, 0.210000
1637.725389, -1.661749, 0.310864, 1099.000000, 1105.000000, 5380.000000, 5620.000000, 0.210000
1780.552964, -1.806899, 0.313906, 1099.000000, 1105.000000, 5640.000000, 5880.000000, 0.210000
1928.270050, -1.957057, 0.316921, 1099.000000, 1105.000000, 5900.000000, 6140.000000, 0.210000
2080.773988, -2.112125, 0.319909, 1099.000000, 1105.000000, 6160.000000, 6400.000000, 0.210000
2237.969455, -2.272007, 0.322873, 1099.000000, 1105.000000, 6420.000000, 6660.000000, 0.210000
2399.768302, -2.436616, 0.325812, 1099.000000, 1105.000000, 6680.000000, 6920.000000, 0.210000
2566.089325, -2.605874, 0.328727, 1099.000000, 1105.000000, 6940.000000, 7180.000000, 0.210000
2736.857980, -2.779705, 0.331619, 1099.000000, 1105.000000, 7200.000000, 7440.000000, 0.210000
2912.006063, -2.958044, 0.334489, 1099.000000, 1105.000000, 7460.000000, 7700.000000, 0.210000
3091.471358, -3.140828, 0.337337, 1099.000000, 1105.000000, 7720.000000, 7960.000000, 0.210000
3275.197278, -3.328002, 0.340165, 1099.000000, 1105.000000, 7980.000000, 8220.000000, 0.210000
3463.132496, -3.519516, 0.342974, 1099.000000, 1105.000000, 8240.000000, 8480.000000, 0.210000
3655.230574, -3.715323, 0.345763, 1099.000000, 1105.000000, 8500.000000, 8740.000000, 0.210000
3851.449603, -3.915383, 0.348534, 1099.000000, 1105.000000, 8760.000000, 9000.000000, 0.210000
4051.751853, -4.119659, 0.351288, 1099.000000, 1105.000000, 9020.000000, 9260.000000, 0.210000
4256.103436, -4.328116, 0.354025, 1099.000000, 1105.000000, 9280.000000, 9520.000000, 0.210000
4456.352819, -4.532447, 0.356641, 1099.000000, 1105.000000, 9540.000000, 9760.000000, 0.210000
4652.097311, -4.732219, 0.359139, 1099.000000, 1105.000000, 9780.000000, 10000.000000, 0.210000
268.504981, -0.270981, 0.266827, 1105.500000, 1111.500000, 2000.000000, 2240.000000, 0.210000
331.619080, -0.334680, 0.270159, 1105.500000, 1111.500000, 2260.000000, 2500.000000, 0.210000
401.079953, -0.404785, 0.273447, 1105.500000, 1111.500000, 2520.000000, 2760.000000, 0.210000
476.769482, -0.481179, 0.276694, 1105.500000, 1111.500000, 2780.000000, 3020.000000, 0.210000
558.563180, -0.563740, 0.279903, 1105.500000, 1111.500000, 3040.000000, 3280.000000, 0.210000
646.332141, -0.652342, 0.283079, 1105.500000, 1111.500000, 3300.000000, 3540.000000, 0.210000
739.944811, -0.746855, 0.286221, 1105.500000, 1111.500000, 3560.000000, 3800.000000, 0.210000
839.268577, -0.847149, 0.289332, 1105.500000, 1111.500000, 3820.000000, 4060.000000, 0.210000
944.171186, -0.953095, 0.292413, 1105.500000, 1111.500000, 4080.000000, 4320.000000, 0.210000
1054.521980, -1.064565, 0.295465, 1105.500000, 1111.500000, 4340.000000, 4580.000000, 0.210000
1170.192959, -1.181432, 0.298488, 1105.500000, 1111.500000, 4600.000000, 4840.000000, 0.210000
1291.059676, -1.303576, 0.301484, 1105.500000, 1111.500000, 4860.000000, 5100.000000, 0.210000
1417.001960, -1.430877, 0.304453, 1105.500000, 1111.500000, 5120.000000, 5360.000000, 0.210000
1547.904495, -1.563224, 0.307396, 1105.500000, 1111.500000, 5380.000000, 5620.000000, 0.210000
1683.657247, -1.700509, 0.310314, 1105.500000, 1111.500000, 5640.000000, 5880.000000, 0.210000
1824.155770, -1.842628, 0.313207, 1105.500000, 1111.500000, 5900.000000, 6140.000000, 0.210000
1969.301397, -1.989486, 0.316076, 1105.500000, 1111.500000, 6160.000000, 6400.000000, 0.210000
2119.001329, -2.140991, 0.318923, 1105.500000, 1111.500000, 6420.000000, 6660.000000, 0.210000
2273.168636, -2.297058, 0.321746, 1105.500000, 1111.500000, 6680.000000, 6920.000000, 0.210000
2431.722198, -2.457608, 0.324548, 1105.500000, 1111.500000, 6940.000000, 7180.000000, 0.210000
2594.586575, -2.622567, 0.327329, 1105.500000, 1111.500000, 7200.000000, 7440.000000, 0.210000
2761.691836, -2.791867, 0.330089, 1105.500000, 1111.500000, 7460.000000, 7700.000000, 0.210000
2932.973355, -2.965443, 0.332829, 1105.500000, 1111.500000, 7720.000000, 7960.000000, 0.210000
3108.371572, -3.143239, 0.335551, 1105.500000, 1111.500000, 7980.000000, 8220.000000, 0.210000
3287.831741, -3.325200, 0.338253, 1105.500000, 1111.500000, 8240.000000, 8480.000000, 0.210000
3471.303669, -3.511276, 0.340938, 1105.500000, 1111.500000, 8500.000000, 8740.000000, 0.210000
3658.741439, -3.701425, 0.343606, 1105.500000, 1111.500000, 8760.000000, 9000.000000, 0.210000
3850.103145, -3.895603, 0.346257, 1105.500000, 1111.500000, 9020.000000, 9260.000000, 0.210000
4045.350619, -4.093775, 0.348892, 1105.500000, 1111.500000, 9280.000000, 9520.000000, 0.210000
4236.689145, -4.288034, 0.351411, 1105.500000, 1111.500000, 9540.000000, 9760.000000, 0.210000
4423.728329, -4.477965, 0.353816, 1105.500000, 1111.500000, 9780.000000, 10000.000000, 0.210000
253.535162, -0.254725, 0.265364, 1112.000000, 1118.000000, 2000.000000, 2240.000000, 0.210000
312.915543, -0.314389, 0.268540, 1112.000000, 1118.000000, 2260.000000, 2500.000000, 0.210000
378.290403, -0.380073, 0.271673, 1112.000000, 1118.000000, 2520.000000, 2760.000000, 0.210000
449.563268, -0.451685, 0.274769, 1112.000000, 1118.000000, 2780.000000, 3020.000000, 0.210000
526.631329, -0.529123, 0.277830, 1112.000000, 1118.000000, 3040.000000, 3280.000000, 0.210000
