Coefficients constant [W],Coefficients T [W/K],Coefficients j [W/(A/m^2)],T_start [K],T_end [K],j_start [A/m^2],j_end [A/m^2],Area [m^2],Temperature starts,Temperature ends,Current density starts,Current density ends
503.716870, -1.700493, 0.447643, 313.000000, 314.500000, 1000.000000, 1090.000000, 0.210000, 313.000000, 314.500000, 1000.000000, 1090.000000
563.082773, -1.907199, 0.452611, 313.000000, 314.500000, 1120.000000, 1210.000000, 0.210000, 315.000000, 316.500000, 1120.000000, 1210.000000
622.724213, -2.116337, 0.457489, 313.000000, 314.500000, 1240.000000, 1330.000000, 0.210000, 317.000000, 318.500000, 1240.000000, 1330.000000
682.609914, -2.327893, 0.462315, 313.000000, 314.500000, 1360.000000, 1450.000000, 0.210000, 319.000000, 320.500000, 1360.000000, 1450.000000
742.702145, -2.541846, 0.467117, 313.000000, 314.500000, 1480.000000, 1570.000000, 0.210000, 321.000000, 322.500000, 1480.000000, 1570.000000
802.955580, -2.758171, 0.471924, 313.000000, 314.500000, 1600.000000, 1690.000000, 0.210000, 323.000000, 324.500000, 1600.000000, 1690.000000
863.315724, -2.976836, 0.476760, 313.000000, 314.500000, 1720.000000, 1810.000000, 0.210000, 325.000000, 326.500000, 1720.000000, 1810.000000
923.716816, -3.197804, 0.481651, 313.000000, 314.500000, 1840.000000, 1930.000000, 0.210000, 327.000000, 328.500000, 1840.000000, 1930.000000
984.079010, -3.421031, 0.486625, 313.000000, 314.500000, 1960.000000, 2050.000000, 0.210000, 329.000000, 330.500000, 1960.000000, 2050.000000
1044.304564, -3.646462, 0.491711, 313.000000, 314.500000, 2080.000000, 2170.000000, 0.210000, 331.000000, 332.500000, 2080.000000, 2170.000000
1104.272641, -3.874034, 0.496943, 313.000000, 314.500000, 2200.000000, 2290.000000, 0.210000, 333.000000, 334.500000, 2200.000000, 2290.000000
1156.398033, -4.074820, 0.501669, 313.000000, 314.500000, 2320.000000, 2380.000000, 0.210000, 335.000000, 336.000000, 2320.000000, 2380.000000
1200.750003, -4.248167, 0.505859, 313.000000, 314.500000, 2410.000000, 2470.000000, 0.210000, 336.500000, 337.500000, 2410.000000, 2470.000000
1244.683483, -4.422587, 0.510201, 313.000000, 314.500000, 2500.000000, 2560.000000, 0.210000, 338.000000, 339.000000, 2500.000000, 2560.000000
1288.080133, -4.598027, 0.514724, 313.000000, 314.500000, 2590.000000, 2650.000000, 0.210000, 339.500000, 340.500000, 2590.000000, 2650.000000
1330.794155, -4.774428, 0.519463, 313.000000, 314.500000, 2680.000000, 2740.000000, 0.210000, 341.000000, 342.000000, 2680.000000, 2740.000000
1372.643685, -4.951717, 0.524463, 313.000000, 314.500000, 2770.000000, 2830.000000, 0.210000, 342.500000, 343.500000, 2770.000000, 2830.000000
1413.398700, -5.129808, 0.529777, 313.000000, 314.500000, 2860.000000, 2920.000000, 0.210000, 344.000000, 345.000000, 2860.000000, 2920.000000
1452.763646, -5.308599, 0.535477, 313.000000, 314.500000, 2950.000000, 3010.000000, 0.210000, 345.500000, 346.500000, 2950.000000, 3010.000000
1490.351871, -5.487962, 0.541653, 313.000000, 314.500000, 3040.000000, 3100.000000, 0.210000, 347.000000, 348.000000, 3040.000000, 3100.000000
1525.646945, -5.667742, 0.548429, 313.000000, 314.500000, 3130.000000, 3190.000000, 0.210000, 348.500000, 349.500000, 3130.000000, 3190.000000
1557.942239, -5.847741, 0.555972, 313.000000, 314.500000, 3220.000000, 3280.000000, 0.210000, 350.000000, 351.000000, 3220.000000, 3280.000000
1586.242936, -6.027703, 0.564517, 313.000000, 314.500000, 3310.000000, 3370.000000, 0.210000, 351.500000, 352.500000, 3310.000000, 3370.000000
1609.099928, -6.207294, 0.574407, 313.000000, 314.500000, 3400.000000, 3460.000000, 0.210000, 353.000000, 354.000000, 3400.000000, 3460.000000
1624.312758, -6.386052, 0.586166, 313.000000, 314.500000, 3490.000000, 3550.000000, 0.210000, 354.500000, 355.500000, 3490.000000, 3550.000000
1628.362187, -6.563329, 0.600626, 313.000000, 314.500000, 3580.000000, 3640.000000, 0.210000, 356.000000, 357.000000, 3580.000000, 3640.000000
1615.231995, -6.738158, 0.619218, 313.000000, 314.500000, 3670.000000, 3730.000000, 0.210000, 357.500000, 358.500000, 3670.000000, 3730.000000
1573.679514, -6.909002, 0.644613, 313.000000, 314.500000, 3760.000000, 3820.000000, 0.210000, 359.000000, 360.000000, 3760.000000, 3820.000000
1479.879177, -7.073179, 0.682478, 313.000000, 314.500000, 3850.000000, 3910.000000, 0.210000, 360.500000, 361.500000, 3850.000000, 3910.000000
1272.549155, -7.225301, 0.747400, 313.000000, 314.500000, 3940.000000, 4000.000000, 0.210000, 362.000000, 363.000000, 3940.000000, 4000.000000
501.086899, -1.680848, 0.444243, 315.000000, 316.500000, 1000.000000, 1090.000000, 0.210000
559.957612, -1.884539, 0.449171, 315.000000, 316.500000, 1120.000000, 1210.000000, 0.210000
619.063319, -2.090504, 0.454011, 315.000000, 316.500000, 1240.000000, 1330.000000, 0.210000
678.372505, -2.298728, 0.458797, 315.000000, 316.500000, 1360.000000, 1450.000000, 0.210000
737.847172, -2.509192, 0.463561, 315.000000, 316.500000, 1480.000000, 1570.000000, 0.210000
797.441675, -2.721869, 0.468330, 315.000000, 316.500000, 1600.000000, 1690.000000, 0.210000
857.101150, -2.936729, 0.473129, 315.000000, 316.500000, 1720.000000, 1810.000000, 0.210000
916.759399, -3.153733, 0.477984, 315.000000, 316.500000, 1840.000000, 1930.000000, 0.210000
976.336049, -3.372836, 0.482922, 315.000000, 316.500000, 1960.000000, 2050.000000, 0.210000
1035.732719, -3.593986, 0.487973, 315.000000, 316.500000, 2080.000000, 2170.000000, 0.210000
1094.827791, -3.817118, 0.493171, 315.000000, 316.500000, 2200.000000, 2290.000000, 0.210000
1146.153299, -4.013892, 0.497868, 315.000000, 316.500000, 2320.000000, 2380.000000, 0.210000
1189.790760, -4.183701, 0.502035, 315.000000, 316.500000, 2410.000000, 2470.000000, 0.210000
1232.983150, -4.354494, 0.506355, 315.000000, 316.500000, 2500.000000, 2560.000000, 0.210000
1275.611374, -4.526218, 0.510857, 315.000000, 316.500000, 2590.000000, 2650.000000, 0.210000
1317.528699, -4.698813, 0.515576, 315.000000, 316.500000, 2680.000000, 2740.000000, 0.210000
1358.552099, -4.872206, 0.520558, 315.000000, 316.500000, 2770.000000, 2830.000000, 0.210000
1398.450081, -5.046313, 0.525856, 315.000000, 316.500000, 2860.000000, 2920.000000, 0.210000
1436.925205, -5.221030, 0.531543, 315.000000, 316.500000, 2950.000000, 3010.000000, 0.210000
1473.588351, -5.396231, 0.537709, 315.000000, 316.500000, 3040.000000, 3100.000000, 0.210000
1507.919795, -5.571758, 0.544479, 315.000000, 316.500000, 3130.000000, 3190.000000, 0.210000
1539.208400, -5.747416, 0.552020, 315.000000, 316.500000, 3220.000000, 3280.000000, 0.210000
1566.453005, -5.922947, 0.560570, 315.000000, 316.500000, 3310.000000, 3370.000000, 0.210000
1588.195265, -6.098017, 0.570475, 315.000000, 316.500000, 3400.000000, 3460.000000, 0.210000
1602.220692, -6.272166, 0.582259, 315.000000, 316.500000, 3490.000000, 3550.000000, 0.210000
1604.987612, -6.444745, 0.596762, 315.000000, 316.500000, 3580.000000, 3640.000000, 0.210000
1590.441453, -6.614785, 0.615423, 315.000000, 316.500000, 3670.000000, 3730.000000, 0.210000
1547.267879, -6.780751, 0.640931, 315.000000, 316.500000, 3760.000000, 3820.000000, 0.210000
1451.489444, -6.939962, 0.678988, 315.000000, 316.500000, 3850.000000, 3910.000000, 0.210000
1241.433677, -7.087027, 0.744276, 315.000000, 316.500000, 3940.000000, 4000.000000, 0.210000
498.567439, -1.661834, 0.440891, 317.000000, 318.500000, 1000.000000, 1090.000000, 0.210000
556.968632, -1.862637, 0.445782, 317.000000, 318.500000, 1120.000000, 1210.000000, 0.210000
615.566953, -2.065568, 0.450585, 317.000000, 318.500000, 1240.000000, 1330.000000, 0.210000
674.330653, -2.270612, 0.455335, 317.000000, 318.500000, 1360.000000, 1450.000000, 0.210000
733.221458, -2.477748, 0.460064, 317.000000, 318.500000, 1480.000000, 1570.000000, 0.210000
792.193411, -2.686951, 0.464797, 317.000000, 318.500000, 1600.000000, 1690.000000, 0.210000
851.191279, -2.898189, 0.469561, 317.000000, 318.500000, 1720.000000, 1810.000000, 0.210000
910.148423, -3.111424, 0.474381, 317.000000, 318.500000, 1840.000000, 1930.000000, 0.210000
968.983944, -3.326612, 0.479286, 317.000000, 318.500000, 1960.000000, 2050.000000, 0.210000
1027.598826, -3.543699, 0.484305, 317.000000, 318.500000, 2080.000000, 2170.000000, 0.210000
1085.870664, -3.762621, 0.489472, 317.000000, 318.500000, 2200.000000, 2290.000000, 0.210000
1136.441978, -3.955593, 0.494143, 317.000000, 318.500000, 2320.000000, 2380.000000, 0.210000
1179.405774, -4.122052, 0.498288, 317.000000, 318.500000, 2410.000000, 2470.000000, 0.210000
1221.899426, -4.289411, 0.502588, 317.000000, 318.500000, 2500.000000, 2560.000000, 0.210000
1263.803081, -4.457619, 0.507070, 317.000000, 318.500000, 2590.000000, 2650.000000, 0.210000
1304.969073, -4.626615, 0.511772, 317.000000, 318.500000, 2680.000000, 2740.000000, 0.210000
1345.213213, -4.796327, 0.516738, 317.000000, 318.500000, 2770.000000, 2830.000000, 0.210000
1384.302539, -4.966669, 0.522023, 317.000000, 318.500000, 2860.000000, 2920.000000, 0.210000
1421.937725, -5.137538, 0.527698, 317.000000, 318.500000, 2950.000000, 3010.000000, 0.210000
1457.727182, -5.308808, 0.533856, 317.000000, 318.500000, 3040.000000, 3100.000000, 0.210000
1491.147893, -5.480322, 0.540621, 317.000000, 318.500000, 3130.000000, 3190.000000, 0.210000
1521.484213, -5.651883, 0.548163, 317.000000, 318.500000, 3220.000000, 3280.000000, 0.210000
1547.728638, -5.823236, 0.556720, 317.000000, 318.500000, 3310.000000, 3370.000000, 0.210000
1568.413581, -5.994043, 0.566640, 317.000000, 318.500000, 3400.000000, 3460.000000, 0.210000
1581.310528, -6.163847, 0.578452, 317.000000, 318.500000, 3490.000000, 3550.000000, 0.210000
1582.855369, -6.331998, 0.593001, 317.000000, 318.500000, 3580.000000, 3640.000000, 0.210000
1566.955179, -6.497527, 0.611733, 317.000000, 318.500000, 3670.000000, 3730.000000, 0.210000
1522.223954, -6.658899, 0.637355, 317.000000, 318.500000, 3760.000000, 3820.000000, 0.210000
1424.532372, -6.813433, 0.675607, 317.000000, 318.500000, 3850.000000, 3910.000000, 0.210000
1211.817316, -6.955738, 0.741261, 317.000000, 318.500000, 3940.000000, 4000.000000, 0.210000
496.149623, -1.643409, 0.437584, 319.000000, 320.500000, 1000.000000, 1090.000000, 0.210000
554.104821, -1.841443, 0.442441, 319.000000, 320.500000, 1120.000000, 1210.000000, 0.210000
612.221728, -2.041468, 0.447210, 319.000000, 320.500000, 1240.000000, 1330.000000, 0.210000
670.468357, -2.243469, 0.451927, 319.000000, 320.500000, 1360.000000, 1450.000000, 0.210000
728.806163, -2.447426, 0.456621, 319.000000, 320.500000, 1480.000000, 1570.000000, 0.210000
787.188874, -2.653314, 0.461321, 319.000000, 320.500000, 1600.000000, 1690.000000, 0.210000
845.560886, -2.861100, 0.466053, 319.000000, 320.500000, 1720.000000, 1810.000000, 0.210000
903.855124, -3.070747, 0.470842, 319.000000, 320.500000, 1840.000000, 1930.000000, 0.210000
961.990161, -3.282210, 0.475716, 319.000000, 320.500000, 1960.000000, 2050.000000, 0.210000
1019.866345, -3.495435, 0.480704, 319.000000, 320.500000, 2080.000000, 2170.000000, 0.210000
1077.360486, -3.710359, 0.485842, 319.000000, 320.500000, 2200.000000, 2290.000000, 0.210000
1127.219400, -3.899722, 0.490490, 319.000000, 320.500000, 2320.000000, 2380.000000, 0.210000
1169.546893, -4.063002, 0.494615, 319.000000, 320.500000, 2410.000000, 2470.000000, 0.210000
1211.380545, -4.227106, 0.498896, 319.000000, 320.500000, 2500.000000, 2560.000000, 0.210000
1252.599745, -4.391982, 0.503361, 319.000000, 320.500000, 2590.000000, 2650.000000, 0.210000
1293.055893, -4.557568, 0.508047, 319.000000, 320.500000, 2680.000000, 2740.000000, 0.210000
1332.563639, -4.723793, 0.512999, 319.000000, 320.500000, 2770.000000, 2830.000000, 0.210000
1370.888551, -4.890572, 0.518271, 319.000000, 320.500000, 2860.000000, 2920.000000, 0.210000
1407.729415, -5.057800, 0.523937, 319.000000, 320.500000, 2950.000000, 3010.000000, 0.210000
1442.692177, -5.225353, 0.530088, 319.000000, 320.500000, 3040.000000, 3100.000000, 0.210000
1475.250522, -5.393072, 0.536851, 319.000000, 320.500000, 3130.000000, 3190.000000, 0.210000
1504.684301, -5.560761, 0.544395, 319.000000, 320.500000, 3220.000000, 3280.000000, 0.210000
1529.979665, -5.728165, 0.552962, 319.000000, 320.500000, 3310.000000, 3370.000000, 0.210000
1549.659788, -5.894947, 0.562899, 319.000000, 320.500000, 3400.000000, 3460.000000, 0.210000
1561.482127, -6.060648, 0.574740, 319.000000, 320.500000, 3490.000000, 3550.000000, 0.210000
1561.860136, -6.224618, 0.589335, 319.000000, 320.500000, 3580.000000, 3640.000000, 0.210000
1544.662539, -6.385891, 0.608141, 319.000000, 320.500000, 3670.000000, 3730.000000, 0.210000
1498.431663, -6.542928, 0.633880, 319.000000, 320.500000, 3760.000000, 3820.000000, 0.210000
1398.886308, -6.693051, 0.672327, 319.000000, 320.500000, 3850.000000, 3910.000000, 0.210000
1183.572715, -6.830868, 0.738350, 319.000000, 320.500000, 3940.000000, 4000.000000, 0.210000
493.825493, -1.625534, 0.434322, 321.000000, 322.500000, 1000.000000, 1090.000000, 0.210000
551.356296, -1.820908, 0.439147, 321.000000, 322.500000, 1120.000000, 1210.000000, 0.210000
609.015625, -2.018145, 0.443884, 321.000000, 322.500000, 1240.000000, 1330.000000, 0.210000
666.771257, -2.217233, 0.448568, 321.000000, 322.500000, 1360.000000, 1450.000000, 0.210000
724.584375, -2.418149, 0.453232, 321.000000, 322.500000, 1480.000000, 1570.000000, 0.210000
782.408392, -2.620868, 0.457901, 321.000000, 322.500000, 1600.000000, 1690.000000, 0.210000
840.187334, -2.825359, 0.462602, 321.000000, 322.500000, 1720.000000, 1810.000000, 0.210000
897.853688, -3.031583, 0.467362, 321.000000, 322.500000, 1840.000000, 1930.000000, 0.210000
955.325501, -3.239497, 0.472207, 321.000000, 322.500000, 1960.000000, 2050.000000, 0.210000
1012.502483, -3.449045, 0.477167, 321.000000, 322.500000, 2080.000000, 2170.000000, 0.210000
1069.260662, -3.660164, 0.482279, 321.000000, 322.500000, 2200.000000, 2290.000000, 0.210000
1118.445478, -3.846097, 0.486904, 321.000000, 322.500000, 2320.000000, 2380.000000, 0.210000
1160.170905, -4.006357, 0.491011, 321.000000, 322.500000, 2410.000000, 2470.000000, 0.210000
1201.380053, -4.167369, 0.495275, 321.000000, 322.500000, 2500.000000, 2560.000000, 0.210000
1241.951551, -4.329080, 0.499725, 321.000000, 322.500000, 2590.000000, 2650.000000, 0.210000
1281.735868, -4.491431, 0.504397, 321.000000, 322.500000, 2680.000000, 2740.000000, 0.210000
1320.546491, -4.654350, 0.509336, 321.000000, 322.500000, 2770.000000, 2830.000000, 0.210000
1358.147519, -4.817749, 0.514598, 321.000000, 322.500000, 2860.000000, 2920.000000, 0.210000
1394.235849, -4.981528, 0.520255, 321.000000, 322.500000, 2950.000000, 3010.000000, 0.210000
1428.414961, -5.145558, 0.526402, 321.000000, 322.500000, 3040.000000, 3100.000000, 0.210000
1460.155247, -5.309684, 0.533164, 321.000000, 322.500000, 3130.000000, 3190.000000, 0.210000
1488.732048, -5.473707, 0.540712, 321.000000, 322.500000, 3220.000000, 3280.000000, 0.210000
1513.125173, -5.637374, 0.549289, 321.000000, 322.500000, 3310.000000, 3370.000000, 0.210000
1531.848557, -5.800346, 0.559246, 321.000000, 322.500000, 3400.000000, 3460.000000, 0.210000
1542.645627, -5.962167, 0.571118, 321.000000, 322.500000, 3490.000000, 3550.000000, 0.210000
1541.907402, -6.122184, 0.585761, 321.000000, 322.500000, 3580.000000, 3640.000000, 0.210000
1523.464254, -6.279433, 0.604642, 321.000000, 322.500000, 3670.000000, 3730.000000, 0.210000
1475.786841, -6.432374, 0.630498, 321.000000, 322.500000, 3760.000000, 3820.000000, 0.210000
1374.442086, -6.578329, 0.669143, 321.000000, 322.500000, 3850.000000, 3910.000000, 0.210000
1156.585588, -6.711906, 0.735537, 321.000000, 322.500000, 3940.000000, 4000.000000, 0.210000
491.587886, -1.608177, 0.431103, 323.000000, 324.500000, 1000.000000, 1090.000000, 0.210000
548.714164, -1.800990, 0.435897, 323.000000, 324.500000, 1120.000000, 1210.000000, 0.210000
605.937834, -1.995551, 0.440604, 323.000000, 324.500000, 1240.000000, 1330.000000, 0.210000
663.226437, -2.191842, 0.445259, 323.000000, 324.500000, 1360.000000, 1450.000000, 0.210000
720.540884, -2.389844, 0.449893, 323.000000, 324.500000, 1480.000000, 1570.000000, 0.210000
777.834274, -2.589531, 0.454533, 323.000000, 324.500000, 1600.000000, 1690.000000, 0.210000
835.050264, -2.790871, 0.459206, 323.000000, 324.500000, 1720.000000, 1810.000000, 0.210000
892.120900, -2.993826, 0.463938, 323.000000, 324.500000, 1840.000000, 1930.000000, 0.210000
948.963706, -3.198352, 0.468757, 323.000000, 324.500000, 1960.000000, 2050.000000, 0.210000
1005.477752, -3.404394, 0.473692, 323.000000, 324.500000, 2080.000000, 2170.000000, 0.210000
1061.538284, -3.611888, 0.478778, 323.000000, 324.500000, 2200.000000, 2290.000000, 0.210000
1110.084165, -3.794554, 0.483383, 323.000000, 324.500000, 2320.000000, 2380.000000, 0.210000
1151.238953, -3.951939, 0.487474, 323.000000, 324.500000, 2410.000000, 2470.000000, 0.210000
1191.856176, -4.110009, 0.491722, 323.000000, 324.500000, 2500.000000, 2560.000000, 0.210000
1231.813707, -4.268713, 0.496158, 323.000000, 324.500000, 2590.000000, 2650.000000, 0.210000
1270.961080, -4.427989, 0.500817, 323.000000, 324.500000, 2680.000000, 2740.000000, 0.210000
1309.110619, -4.587765, 0.505745, 323.000000, 324.500000, 2770.000000, 2830.000000, 0.210000
1346.024954, -4.747957, 0.510998, 323.000000, 324.500000, 2860.000000, 2920.000000, 0.210000
1381.399097, -4.908460, 0.516649, 323.000000, 324.500000, 2950.000000, 3010.000000, 0.210000
1414.834058, -5.069148, 0.522793, 323.000000, 324.500000, 3040.000000, 3100.000000, 0.210000
1445.796936, -5.229864, 0.529556, 323.000000, 324.500000, 3130.000000, 3190.000000, 0.210000
1473.558564, -5.390412, 0.537110, 323.000000, 324.500000, 3220.000000, 3280.000000, 0.210000
1497.092409, -5.550536, 0.545698, 323.000000, 324.500000, 3310.000000, 3370.000000, 0.210000
1514.903165, -5.709899, 0.555676, 323.000000, 324.500000, 3400.000000, 3460.000000, 0.210000
1524.720230, -5.868043, 0.567580, 323.000000, 324.500000, 3490.000000, 3550.000000, 0.210000
1522.912189, -6.024317, 0.582274, 323.000000, 324.500000, 3580.000000, 3640.000000, 0.210000
1503.271060, -6.177755, 0.601230, 323.000000, 324.500000, 3670.000000, 3730.000000, 0.210000
1454.195834, -6.326820, 0.627207, 323.000000, 324.500000, 3760.000000, 3820.000000, 0.210000
1351.101556, -6.468830, 0.666051, 323.000000, 324.500000, 3850.000000, 3910.000000, 0.210000
1130.753182, -6.598397, 0.732816, 323.000000, 324.500000, 3940.000000, 4000.000000, 0.210000
489.430349, -1.591304, 0.427924, 325.000000, 326.500000, 1000.000000, 1090.000000, 0.210000
546.170411, -1.781652, 0.432690, 325.000000, 326.500000, 1120.000000, 1210.000000, 0.210000
602.978612, -1.973637, 0.437369, 325.000000, 326.500000, 1240.000000, 1330.000000, 0.210000
659.822256, -2.167243, 0.441996, 325.000000, 326.500000, 1360.000000, 1450.000000, 0.210000
716.661985, -2.362449, 0.446603, 325.000000, 326.500000, 1480.000000, 1570.000000, 0.210000
773.450581, -2.559229, 0.451216, 325.000000, 326.500000, 1600.000000, 1690.000000, 0.210000
830.131330, -2.757552, 0.455863, 325.000000, 326.500000, 1720.000000, 1810.000000, 0.210000
886.635843, -2.957380, 0.460569, 325.000000, 326.500000, 1840.000000, 1930.000000, 0.210000
942.881117, -3.158667, 0.465363, 325.000000, 326.500000, 1960.000000, 2050.000000, 0.210000
998.765583, -3.361360, 0.470274, 325.000000, 326.500000, 2080.000000, 2170.000000, 0.210000
1054.163705, -3.565395, 0.475338, 325.000000, 326.500000, 2200.000000, 2290.000000, 0.210000
1102.102983, -3.744944, 0.479924, 325.000000, 326.500000, 2320.000000, 2380.000000, 0.210000
1142.716029, -3.899590, 0.484000, 325.000000, 326.500000, 2410.000000, 2470.000000, 0.210000
1182.771283, -4.054858, 0.488234, 325.000000, 326.500000, 2500.000000, 2560.000000, 0.210000
1222.145858, -4.210697, 0.492657, 325.000000, 326.500000, 2590.000000, 2650.000000, 0.210000
1260.688358, -4.367046, 0.497305, 325.000000, 326.500000, 2680.000000, 2740.000000, 0.210000
1298.209942, -4.523833, 0.502223, 325.000000, 326.500000, 2770.000000, 2830.000000, 0.210000
