Coefficients constant [W],Coefficients T [W/K],Coefficients j [W/(A/m^2)],T_start [K],T_end [K],j_start [A/m^2],j_end [A/m^2],Area [m^2],Temperature starts,Temperature ends,Current density starts,Current density ends
357.884872, -0.369926, 0.275622, 1073.000000, 1078.000000, 2000.000000, 2200.000000, 0.210000, 1073.000000, 1078.000000, 2000.000000, 2200.000000
429.781992, -0.444255, 0.279262, 1073.000000, 1078.000000, 2220.000000, 2420.000000, 0.210000, 1078.500000, 1083.500000, 2220.000000, 2420.000000
507.635475, -0.524752, 0.282851, 1073.000000, 1078.000000, 2440.000000, 2640.000000, 0.210000, 1084.000000, 1089.000000, 2440.000000, 2640.000000
591.266251, -0.611238, 0.286393, 1073.000000, 1078.000000, 2660.000000, 2860.000000, 0.210000, 1089.500000, 1094.500000, 2660.000000, 2860.000000
680.496765, -0.703532, 0.289888, 1073.000000, 1078.000000, 2880.000000, 3080.000000, 0.210000, 1095.000000, 1100.000000, 2880.000000, 3080.000000
775.153431, -0.801461, 0.293340, 1073.000000, 1078.000000, 3100.000000, 3300.000000, 0.210000, 1100.500000, 1105.500000, 3100.000000, 3300.000000
875.068619, -0.904854, 0.296749, 1073.000000, 1078.000000, 3320.000000, 3520.000000, 0.210000, 1106.000000, 1111.000000, 3320.000000, 3520.000000
980.082198, -1.013551, 0.300118, 1073.000000, 1078.000000, 3540.000000, 3740.000000, 0.210000, 1111.500000, 1116.500000, 3540.000000, 3740.000000
1090.042674, -1.127398, 0.303447, 1073.000000, 1078.000000, 3760.000000, 3960.000000, 0.210000, 1117.000000, 1122.000000, 3760.000000, 3960.000000
1204.807953, -1.246252, 0.306737, 1073.000000, 1078.000000, 3980.000000, 4180.000000, 0.210000, 1122.500000, 1127.500000, 3980.000000, 4180.000000
1324.245788, -1.369980, 0.309990, 1073.000000, 1078.000000, 4200.000000, 4400.000000, 0.210000, 1128.000000, 1133.000000, 4200.000000, 4400.000000
1448.233960, -1.498459, 0.313208, 1073.000000, 1078.000000, 4420.000000, 4620.000000, 0.210000, 1133.500000, 1138.500000, 4420.000000, 4620.000000
1576.660229, -1.631575, 0.316392, 1073.000000, 1078.000000, 4640.000000, 4840.000000, 0.210000, 1139.000000, 1144.000000, 4640.000000, 4840.000000
1709.422113, -1.769224, 0.319543, 1073.000000, 1078.000000, 4860.000000, 5060.000000, 0.210000, 1144.500000, 1149.500000, 4860.000000, 5060.000000
1846.426534, -1.911314, 0.322662, 1073.000000, 1078.000000, 5080.000000, 5280.000000, 0.210000, 1150.000000, 1155.000000, 5080.000000, 5280.000000
1987.589364, -2.057758, 0.325750, 1073.000000, 1078.000000, 5300.000000, 5500.000000, 0.210000, 1155.500000, 1160.500000, 5300.000000, 5500.000000
2132.834905, -2.208481, 0.328810, 1073.000000, 1078.000000, 5520.000000, 5720.000000, 0.210000, 1161.000000, 1166.000000, 5520.000000, 5720.000000
2282.095327, -2.363414, 0.331841, 1073.000000, 1078.000000, 5740.000000, 5940.000000, 0.210000, 1166.500000, 1171.500000, 5740.000000, 5940.000000
2435.310094, -2.522496, 0.334846, 1073.000000, 1078.000000, 5960.000000, 6160.000000, 0.210000, 1172.000000, 1177.000000, 5960.000000, 6160.000000
2592.425375, -2.685673, 0.337825, 1073.000000, 1078.000000, 6180.000000, 6380.000000, 0.210000, 1177.500000, 1182.500000, 6180.000000, 6380.000000
2753.393477, -2.852896, 0.340780, 1073.000000, 1078.000000, 6400.000000, 6600.000000, 0.210000, 1183.000000, 1188.000000, 6400.000000, 6600.000000
2918.172292, -3.024122, 0.343711, 1073.000000, 1078.000000, 6620.000000, 6820.000000, 0.210000, 1188.500000, 1193.500000, 6620.000000, 6820.000000
3086.724771, -3.199315, 0.346620, 1073.000000, 1078.000000, 6840.000000, 7040.000000, 0.210000, 1194.000000, 1199.000000, 6840.000000, 7040.000000
3259.018434, -3.378441, 0.349507, 1073.000000, 1078.000000, 7060.000000, 7260.000000, 0.210000, 1199.500000, 1204.500000, 7060.000000, 7260.000000
3435.024900, -3.561472, 0.352375, 1073.000000, 1078.000000, 7280.000000, 7480.000000, 0.210000, 1205.000000, 1210.000000, 7280.000000, 7480.000000
3614.719471, -3.748382, 0.355222, 1073.000000, 1078.000000, 7500.000000, 7700.000000, 0.210000, 1210.500000, 1215.500000, 7500.000000, 7700.000000
3798.080730, -3.939150, 0.358051, 1073.000000, 1078.000000, 7720.000000, 7920.000000, 0.210000, 1216.000000, 1221.000000, 7720.000000, 7920.000000
3985.090191, -4.133758, 0.360862, 1073.000000, 1078.000000, 7940.000000, 8140.000000, 0.210000, 1221.500000, 1226.500000, 7940.000000, 8140.000000
4175.731969, -4.332189, 0.363656, 1073.000000, 1078.000000, 8160.000000, 8360.000000, 0.210000, 1227.000000, 1232.000000, 8160.000000, 8360.000000
4369.992487, -4.534430, 0.366434, 1073.000000, 1078.000000, 8380.000000, 8580.000000, 0.210000, 1232.500000, 1237.500000, 8380.000000, 8580.000000
4567.860208, -4.740468, 0.369196, 1073.000000, 1078.000000, 8600.000000, 8800.000000, 0.210000, 1238.000000, 1243.000000, 8600.000000, 8800.000000
4760.055656, -4.940647, 0.371818, 1073.000000, 1078.000000, 8820.000000, 9000.000000, 0.210000, 1243.500000, 1248.000000, 8820.000000, 9000.000000
4946.172607, -5.134522, 0.374304, 1073.000000, 1078.000000, 9020.000000, 9200.000000, 0.210000, 1248.500000, 1253.000000, 9020.000000, 9200.000000
5135.251036, -5.331516, 0.376778, 1073.000000, 1078.000000, 9220.000000, 9400.000000, 0.210000, 1253.500000, 1258.000000, 9220.000000, 9400.000000
5327.286636, -5.531625, 0.379242, 1073.000000, 1078.000000, 9420.000000, 9600.000000, 0.210000, 1258.500000, 1263.000000, 9420.000000, 9600.000000
5522.275855, -5.734844, 0.381695, 1073.000000, 1078.000000, 9620.000000, 9800.000000, 0.210000, 1263.500000, 1268.000000, 9620.000000, 9800.000000
5720.215811, -5.941171, 0.384138, 1073.000000, 1078.000000, 9820.000000, 10000.000000, 0.210000, 1268.500000, 1273.000000, 9820.000000, 10000.000000
339.667545, -0.349661, 0.273891, 1078.500000, 1083.500000, 2000.000000, 2200.000000, 0.210000
407.910056, -0.419918, 0.277378, 1078.500000, 1083.500000, 2220.000000, 2420.000000, 0.210000
481.873126, -0.496073, 0.280819, 1078.500000, 1083.500000, 2440.000000, 2640.000000, 0.210000
561.401210, -0.577969, 0.284216, 1078.500000, 1083.500000, 2660.000000, 2860.000000, 0.210000
646.338220, -0.665449, 0.287572, 1078.500000, 1083.500000, 2880.000000, 3080.000000, 0.210000
736.529677, -0.758359, 0.290887, 1078.500000, 1083.500000, 3100.000000, 3300.000000, 0.210000
831.824532, -0.856547, 0.294164, 1078.500000, 1083.500000, 3320.000000, 3520.000000, 0.210000
932.076649, -0.959866, 0.297404, 1078.500000, 1083.500000, 3540.000000, 3740.000000, 0.210000
1037.145976, -1.068176, 0.300608, 1078.500000, 1083.500000, 3760.000000, 3960.000000, 0.210000
1146.899428, -1.181342, 0.303776, 1078.500000, 1083.500000, 3980.000000, 4180.000000, 0.210000
1261.211501, -1.299240, 0.306911, 1078.500000, 1083.500000, 4200.000000, 4400.000000, 0.210000
1379.964653, -1.421751, 0.310014, 1078.500000, 1083.500000, 4420.000000, 4620.000000, 0.210000
1503.049488, -1.548764, 0.313085, 1078.500000, 1083.500000, 4640.000000, 4840.000000, 0.210000
1630.364771, -1.680180, 0.316125, 1078.500000, 1083.500000, 4860.000000, 5060.000000, 0.210000
1761.817306, -1.815903, 0.319135, 1078.500000, 1083.500000, 5080.000000, 5280.000000, 0.210000
1897.321708, -1.955848, 0.322118, 1078.500000, 1083.500000, 5300.000000, 5500.000000, 0.210000
2036.800094, -2.099937, 0.325073, 1078.500000, 1083.500000, 5520.000000, 5720.000000, 0.210000
2180.181711, -2.248100, 0.328002, 1078.500000, 1083.500000, 5740.000000, 5940.000000, 0.210000
2327.402531, -2.400270, 0.330905, 1078.500000, 1083.500000, 5960.000000, 6160.000000, 0.210000
2478.404814, -2.556392, 0.333785, 1078.500000, 1083.500000, 6180.000000, 6380.000000, 0.210000
2633.136671, -2.716411, 0.336641, 1078.500000, 1083.500000, 6400.000000, 6600.000000, 0.210000
2791.551616, -2.880282, 0.339474, 1078.500000, 1083.500000, 6620.000000, 6820.000000, 0.210000
2953.608138, -3.047963, 0.342286, 1078.500000, 1083.500000, 6840.000000, 7040.000000, 0.210000
3119.269276, -3.219417, 0.345078, 1078.500000, 1083.500000, 7060.000000, 7260.000000, 0.210000
3288.502222, -3.394611, 0.347850, 1078.500000, 1083.500000, 7280.000000, 7480.000000, 0.210000
3461.277940, -3.573515, 0.350603, 1078.500000, 1083.500000, 7500.000000, 7700.000000, 0.210000
3637.570811, -3.756104, 0.353338, 1078.500000, 1083.500000, 7720.000000, 7920.000000, 0.210000
3817.358303, -3.942355, 0.356055, 1078.500000, 1083.500000, 7940.000000, 8140.000000, 0.210000
4000.620663, -4.132248, 0.358756, 1078.500000, 1083.500000, 8160.000000, 8360.000000, 0.210000
4187.340636, -4.325766, 0.361441, 1078.500000, 1083.500000, 8380.000000, 8580.000000, 0.210000
4377.503206, -4.522894, 0.364111, 1078.500000, 1083.500000, 8600.000000, 8800.000000, 0.210000
4562.188694, -4.714391, 0.366646, 1078.500000, 1083.500000, 8820.000000, 9000.000000, 0.210000
4741.007200, -4.899831, 0.369048, 1078.500000, 1083.500000, 9020.000000, 9200.000000, 0.210000
4922.643825, -5.088228, 0.371439, 1078.500000, 1083.500000, 9220.000000, 9400.000000, 0.210000
5107.092219, -5.279574, 0.373819, 1078.500000, 1083.500000, 9420.000000, 9600.000000, 0.210000
5294.346913, -5.473865, 0.376189, 1078.500000, 1083.500000, 9620.000000, 9800.000000, 0.210000
5484.403231, -5.671096, 0.378548, 1078.500000, 1083.500000, 9820.000000, 10000.000000, 0.210000
322.538426, -0.330687, 0.272257, 1084.000000, 1089.000000, 2000.000000, 2200.000000, 0.210000
387.304309, -0.397092, 0.275598, 1084.000000, 1089.000000, 2220.000000, 2420.000000, 0.210000
457.554030, -0.469126, 0.278896, 1084.000000, 1089.000000, 2440.000000, 2640.000000, 0.210000
533.153431, -0.546653, 0.282155, 1084.000000, 1089.000000, 2660.000000, 2860.000000, 0.210000
613.966403, -0.629539, 0.285375, 1084.000000, 1089.000000, 2880.000000, 3080.000000, 0.210000
699.856733, -0.717646, 0.288559, 1084.000000, 1089.000000, 3100.000000, 3300.000000, 0.210000
790.689711, -0.810841, 0.291709, 1084.000000, 1089.000000, 3320.000000, 3520.000000, 0.210000
886.333495, -0.908992, 0.294824, 1084.000000, 1089.000000, 3540.000000, 3740.000000, 0.210000
986.660235, -1.011970, 0.297907, 1084.000000, 1089.000000, 3760.000000, 3960.000000, 0.210000
1091.546989, -1.119654, 0.300957, 1084.000000, 1089.000000, 3980.000000, 4180.000000, 0.210000
1200.876406, -1.231925, 0.303977, 1084.000000, 1089.000000, 4200.000000, 4400.000000, 0.210000
1314.537237, -1.348673, 0.306967, 1084.000000, 1089.000000, 4420.000000, 4620.000000, 0.210000
1432.424663, -1.469793, 0.309929, 1084.000000, 1089.000000, 4640.000000, 4840.000000, 0.210000
1554.440482, -1.595186, 0.312861, 1084.000000, 1089.000000, 4860.000000, 5060.000000, 0.210000
1680.493159, -1.724763, 0.315767, 1084.000000, 1089.000000, 5080.000000, 5280.000000, 0.210000
1810.497783, -1.858436, 0.318647, 1084.000000, 1089.000000, 5300.000000, 5500.000000, 0.210000
1944.375925, -1.996129, 0.321501, 1084.000000, 1089.000000, 5520.000000, 5720.000000, 0.210000
2082.055437, -2.137769, 0.324330, 1084.000000, 1089.000000, 5740.000000, 5940.000000, 0.210000
2223.470195, -2.283290, 0.327136, 1084.000000, 1089.000000, 5960.000000, 6160.000000, 0.210000
2368.559809, -2.432631, 0.329919, 1084.000000, 1089.000000, 6180.000000, 6380.000000, 0.210000
2517.269303, -2.585738, 0.332679, 1084.000000, 1089.000000, 6400.000000, 6600.000000, 0.210000
2669.548786, -2.742561, 0.335419, 1084.000000, 1089.000000, 6620.000000, 6820.000000, 0.210000
2825.353109, -2.903054, 0.338138, 1084.000000, 1089.000000, 6840.000000, 7040.000000, 0.210000
2984.641534, -3.067178, 0.340838, 1084.000000, 1089.000000, 7060.000000, 7260.000000, 0.210000
3147.377398, -3.234894, 0.343518, 1084.000000, 1089.000000, 7280.000000, 7480.000000, 0.210000
3313.527792, -3.406171, 0.346181, 1084.000000, 1089.000000, 7500.000000, 7700.000000, 0.210000
3483.063255, -3.580978, 0.348826, 1084.000000, 1089.000000, 7720.000000, 7920.000000, 0.210000
3655.957478, -3.759290, 0.351454, 1084.000000, 1089.000000, 7940.000000, 8140.000000, 0.210000
3832.187031, -3.941084, 0.354066, 1084.000000, 1089.000000, 8160.000000, 8360.000000, 0.210000
4011.731102, -4.126337, 0.356663, 1084.000000, 1089.000000, 8380.000000, 8580.000000, 0.210000
4194.571254, -4.315033, 0.359245, 1084.000000, 1089.000000, 8600.000000, 8800.000000, 0.210000
4372.128850, -4.498322, 0.361696, 1084.000000, 1089.000000, 8820.000000, 9000.000000, 0.210000
4544.028226, -4.675797, 0.364019, 1084.000000, 1089.000000, 9020.000000, 9200.000000, 0.210000
4718.617236, -4.856083, 0.366330, 1084.000000, 1089.000000, 9220.000000, 9400.000000, 0.210000
4895.887410, -5.039170, 0.368632, 1084.000000, 1089.000000, 9420.000000, 9600.000000, 0.210000
5075.831271, -5.225052, 0.370923, 1084.000000, 1089.000000, 9620.000000, 9800.000000, 0.210000
5258.442242, -5.413721, 0.373204, 1084.000000, 1089.000000, 9820.000000, 10000.000000, 0.210000
306.442705, -0.312932, 0.270712, 1089.500000, 1094.500000, 2000.000000, 2200.000000, 0.210000
367.907372, -0.375698, 0.273914, 1089.500000, 1094.500000, 2220.000000, 2420.000000, 0.210000
434.620175, -0.443828, 0.277077, 1089.500000, 1094.500000, 2440.000000, 2640.000000, 0.210000
506.466122, -0.517206, 0.280203, 1089.500000, 1094.500000, 2660.000000, 2860.000000, 0.210000
583.327374, -0.595715, 0.283294, 1089.500000, 1094.500000, 2880.000000, 3080.000000, 0.210000
665.084792, -0.679236, 0.286351, 1089.500000, 1094.500000, 3100.000000, 3300.000000, 0.210000
751.619327, -0.767652, 0.289377, 1089.500000, 1094.500000, 3320.000000, 3520.000000, 0.210000
842.813232, -0.860845, 0.292373, 1089.500000, 1094.500000, 3540.000000, 3740.000000, 0.210000
938.551100, -0.958700, 0.295338, 1089.500000, 1094.500000, 3760.000000, 3960.000000, 0.210000
1038.720736, -1.061106, 0.298275, 1089.500000, 1094.500000, 3980.000000, 4180.000000, 0.210000
1143.213864, -1.167955, 0.301183, 1089.500000, 1094.500000, 4200.000000, 4400.000000, 0.210000
1251.926685, -1.279144, 0.304064, 1089.500000, 1094.500000, 4420.000000, 4620.000000, 0.210000
1364.760297, -1.394575, 0.306919, 1089.500000, 1094.500000, 4640.000000, 4840.000000, 0.210000
1481.620979, -1.514154, 0.309748, 1089.500000, 1094.500000, 4860.000000, 5060.000000, 0.210000
1602.420379, -1.637793, 0.312552, 1089.500000, 1094.500000, 5080.000000, 5280.000000, 0.210000
1727.075588, -1.765411, 0.315331, 1089.500000, 1094.500000, 5300.000000, 5500.000000, 0.210000
1855.509141, -1.896929, 0.318087, 1089.500000, 1094.500000, 5520.000000, 5720.000000, 0.210000
1987.648950, -2.032277, 0.320820, 1089.500000, 1094.500000, 5740.000000, 5940.000000, 0.210000
2123.428176, -2.171388, 0.323531, 1089.500000, 1094.500000, 5960.000000, 6160.000000, 0.210000
2262.785059, -2.314201, 0.326221, 1089.500000, 1094.500000, 6180.000000, 6380.000000, 0.210000
2405.662713, -2.460658, 0.328889, 1089.500000, 1094.500000, 6400.000000, 6600.000000, 0.210000
2552.008903, -2.610708, 0.331538, 1089.500000, 1094.500000, 6620.000000, 6820.000000, 0.210000
2701.775793, -2.764304, 0.334168, 1089.500000, 1094.500000, 6840.000000, 7040.000000, 0.210000
2854.919698, -2.921401, 0.336779, 1089.500000, 1094.500000, 7060.000000, 7260.000000, 0.210000
3011.400820, -3.081961, 0.339372, 1089.500000, 1094.500000, 7280.000000, 7480.000000, 0.210000
3171.182995, -3.245948, 0.341947, 1089.500000, 1094.500000, 7500.000000, 7700.000000, 0.210000
3334.233433, -3.413328, 0.344506, 1089.500000, 1094.500000, 7720.000000, 7920.000000, 0.210000
3500.522475, -3.584072, 0.347049, 1089.500000, 1094.500000, 7940.000000, 8140.000000, 0.210000
3670.023349, -3.758154, 0.349576, 1089.500000, 1094.500000, 8160.000000, 8360.000000, 0.210000
3842.711949, -3.935550, 0.352088, 1089.500000, 1094.500000, 8380.000000, 8580.000000, 0.210000
4018.566612, -4.116238, 0.354586, 1089.500000, 1094.500000, 8600.000000, 8800.000000, 0.210000
4189.333309, -4.291742, 0.356958, 1089.500000, 1094.500000, 8820.000000, 9000.000000, 0.210000
4354.648786, -4.461671, 0.359205, 1089.500000, 1094.500000, 9020.000000, 9200.000000, 0.210000
4522.539252, -4.634279, 0.361441, 1089.500000, 1094.500000, 9220.000000, 9400.000000, 0.210000
4692.994120, -4.809556, 0.363667, 1089.500000, 1094.500000, 9420.000000, 9600.000000, 0.210000
4866.003880, -4.987493, 0.365884, 1089.500000, 1094.500000, 9620.000000, 9800.000000, 0.210000
5041.560016, -5.168081, 0.368090, 1089.500000, 1094.500000, 9820.000000, 10000.000000, 0.210000
291.325462, -0.296322, 0.269252, 1095.000000, 1100.000000, 2000.000000, 2200.000000, 0.210000
349.660489, -0.355657, 0.272323, 1095.000000, 1100.000000, 2220.000000, 2420.000000, 0.210000
413.010677, -0.420094, 0.275356, 1095.000000, 1100.000000, 2440.000000, 2640.000000, 0.210000
481.278017, -0.489537, 0.278355, 1095.000000, 1100.000000, 2660.000000, 2860.000000, 0.210000
554.361124, -0.563886, 0.281321, 1095.000000, 1100.000000, 2880.000000, 3080.000000, 0.210000
632.156536, -0.643038, 0.284258, 1095.000000, 1100.000000, 3100.000000, 3300.000000, 0.210000
714.559887, -0.726889, 0.287165, 1095.000000, 1100.000000, 3320.000000, 3520.000000, 0.210000
801.466956, -0.815336, 0.290045, 1095.000000, 1100.000000, 3540.000000, 3740.000000, 0.210000
892.774593, -0.908278, 0.292897, 1095.000000, 1100.000000, 3760.000000, 3960.000000, 0.210000
988.381517, -1.005613, 0.295723, 1095.000000, 1100.000000, 3980.000000, 4180.000000, 0.210000
1088.189000, -1.107245, 0.298524, 1095.000000, 1100.000000, 4200.000000, 4400.000000, 0.210000
1192.101425, -1.213079, 0.301299, 1095.000000, 1100.000000, 4420.000000, 4620.000000, 0.210000
1300.026743, -1.323023, 0.304051, 1095.000000, 1100.000000, 4640.000000, 4840.000000, 0.210000
1411.876818, -1.436991, 0.306778, 1095.000000, 1100.000000, 4860.000000, 5060.000000, 0.210000
1527.567684, -1.554899, 0.309483, 1095.000000, 1100.000000, 5080.000000, 5280.000000, 0.210000
1647.019714, -1.676668, 0.312166, 1095.000000, 1100.000000, 5300.000000, 5500.000000, 0.210000
1770.157722, -1.802225, 0.314826, 1095.000000, 1100.000000, 5520.000000, 5720.000000, 0.210000
1896.910986, -1.931499, 0.317466, 1095.000000, 1100.000000, 5740.000000, 5940.000000, 0.210000
2027.213235, -2.064424, 0.320085, 1095.000000, 1100.000000, 5960.000000, 6160.000000, 0.210000
2161.002571, -2.200940, 0.322684, 1095.000000, 1100.000000, 6180.000000, 6380.000000, 0.210000
2298.221367, -2.340988, 0.325264, 1095.000000, 1100.000000, 6400.000000, 6600.000000, 0.210000
2438.816131, -2.484517, 0.327825, 1095.000000, 1100.000000, 6620.000000, 6820.000000, 0.210000
2582.737343, -2.631478, 0.330368, 1095.000000, 1100.000000, 6840.000000, 7040.000000, 0.210000
2729.939284, -2.781825, 0.332893, 1095.000000, 1100.000000, 7060.000000, 7260.000000, 0.210000
2880.379841, -2.935516, 0.335402, 1095.000000, 1100.000000, 7280.000000, 7480.000000, 0.210000
3034.020320, -3.092513, 0.337894, 1095.000000, 1100.000000, 7500.000000, 7700.000000, 0.210000
3190.825241, -3.252781, 0.340370, 1095.000000, 1100.000000, 7720.000000, 7920.000000, 0.210000
3350.762142, -3.416288, 0.342830, 1095.000000, 1100.000000, 7940.000000, 8140.000000, 0.210000
3513.801384, -3.583005, 0.345276, 1095.000000, 1100.000000, 8160.000000, 8360.000000, 0.210000
3679.915957, -3.752905, 0.347707, 1095.000000, 1100.000000, 8380.000000, 8580.000000, 0.210000
3849.081295, -3.925964, 0.350125, 1095.000000, 1100.000000, 8600.000000, 8800.000000, 0.210000
4013.353644, -4.094060, 0.352420, 1095.000000, 1100.000000, 8820.000000, 9000.000000, 0.210000
4172.380616, -4.256814, 0.354595, 1095.000000, 1100.000000, 9020.000000, 9200.000000, 0.210000
4333.880587, -4.422131, 0.356760, 1095.000000, 1100.000000, 9220.000000, 9400.000000, 0.210000
4497.840933, -4.589998, 0.358914, 1095.000000, 1100.000000, 9420.000000, 9600.000000, 0.210000
4664.250169, -4.760405, 0.361059, 1095.000000, 1100.000000, 9620.000000, 9800.000000, 0.210000
4833.097861, -4.933340, 0.363194, 1095.000000, 1100.000000, 9820.000000, 10000.000000, 0.210000
277.132374, -0.280789, 0.267873, 1100.500000, 1105.500000, 2000.000000, 2200.000000, 0.210000
332.504474, -0.336890, 0.270817, 1100.500000, 1105.500000, 2220.000000, 2420.000000, 0.210000
392.662950, -0.397840, 0.273727, 1100.500000, 1105.500000, 2440.000000, 2640.000000, 0.210000
