Coefficients constant [W],Coefficients T [W/K],Coefficients j [W/(A/m^2)],T_start [K],T_end [K],j_start [A/m^2],j_end [A/m^2],Area [m^2],Temperature starts,Temperature ends,Current density starts,Current density ends
346.253672, -0.358285, 0.275184, 1073.000000, 1075.500000, 2000.000000, 2100.000000, 0.210000, 1073.000000, 1075.500000, 2000.000000, 2100.000000
384.417914, -0.397775, 0.277202, 1073.000000, 1075.500000, 2120.000000, 2220.000000, 0.210000, 1076.000000, 1078.500000, 2120.000000, 2220.000000
424.407574, -0.439157, 0.279204, 1073.000000, 1075.500000, 2240.000000, 2340.000000, 0.210000, 1079.000000, 1081.500000, 2240.000000, 2340.000000
466.192736, -0.482400, 0.281191, 1073.000000, 1075.500000, 2360.000000, 2460.000000, 0.210000, 1082.000000, 1084.500000, 2360.000000, 2460.000000
509.743369, -0.527474, 0.283162, 1073.000000, 1075.500000, 2480.000000, 2580.000000, 0.210000, 1085.000000, 1087.500000, 2480.000000, 2580.000000
555.029478, -0.574348, 0.285120, 1073.000000, 1075.500000, 2600.000000, 2700.000000, 0.210000, 1088.000000, 1090.500000, 2600.000000, 2700.000000
602.021247, -0.622993, 0.287062, 1073.000000, 1075.500000, 2720.000000, 2820.000000, 0.210000, 1091.000000, 1093.500000, 2720.000000, 2820.000000
650.689166, -0.673379, 0.288992, 1073.000000, 1075.500000, 2840.000000, 2940.000000, 0.210000, 1094.000000, 1096.500000, 2840.000000, 2940.000000
701.004149, -0.725476, 0.290907, 1073.000000, 1075.500000, 2960.000000, 3060.000000, 0.210000, 1097.000000, 1099.500000, 2960.000000, 3060.000000
752.937632, -0.779256, 0.292809, 1073.000000, 1075.500000, 3080.000000, 3180.000000, 0.210000, 1100.000000, 1102.500000, 3080.000000, 3180.000000
806.461664, -0.834690, 0.294698, 1073.000000, 1075.500000, 3200.000000, 3300.000000, 0.210000, 1103.000000, 1105.500000, 3200.000000, 3300.000000
861.548983, -0.891751, 0.296574, 1073.000000, 1075.500000, 3320.000000, 3420.000000, 0.210000, 1106.000000, 1108.500000, 3320.000000, 3420.000000
918.173079, -0.950412, 0.298438, 1073.000000, 1075.500000, 3440.000000, 3540.000000, 0.210000, 1109.000000, 1111.500000, 3440.000000, 3540.000000
976.308250, -1.010647, 0.300289, 1073.000000, 1075.500000, 3560.000000, 3660.000000, 0.210000, 1112.000000, 1114.500000, 3560.000000, 3660.000000
1035.929641, -1.072431, 0.302129, 1073.000000, 1075.500000, 3680.000000, 3780.000000, 0.210000, 1115.000000, 1117.500000, 3680.000000, 3780.000000
1097.013283, -1.135740, 0.303956, 1073.000000, 1075.500000, 3800.000000, 3900.000000, 0.210000, 1118.000000, 1120.500000, 3800.000000, 3900.000000
1159.536110, -1.200550, 0.305772, 1073.000000, 1075.500000, 3920.000000, 4020.000000, 0.210000, 1121.000000, 1123.500000, 3920.000000, 4020.000000
1223.475981, -1.266839, 0.307576, 1073.000000, 1075.500000, 4040.000000, 4140.000000, 0.210000, 1124.000000, 1126.500000, 4040.000000, 4140.000000
1288.811686, -1.334586, 0.309370, 1073.000000, 1075.500000, 4160.000000, 4260.000000, 0.210000, 1127.000000, 1129.500000, 4160.000000, 4260.000000
1355.522948, -1.403771, 0.311152, 1073.000000, 1075.500000, 4280.000000, 4380.000000, 0.210000, 1130.000000, 1132.500000, 4280.000000, 4380.000000
1423.590419, -1.474373, 0.312923, 1073.000000, 1075.500000, 4400.000000, 4500.000000, 0.210000, 1133.000000, 1135.500000, 4400.000000, 4500.000000
1492.995673, -1.546374, 0.314684, 1073.000000, 1075.500000, 4520.000000, 4620.000000, 0.210000, 1136.000000, 1138.500000, 4520.000000, 4620.000000
1563.721190, -1.619757, 0.316435, 1073.000000, 1075.500000, 4640.000000, 4740.000000, 0.210000, 1139.000000, 1141.500000, 4640.000000, 4740.000000
1635.750342, -1.694504, 0.318176, 1073.000000, 1075.500000, 4760.000000, 4860.000000, 0.210000, 1142.000000, 1144.500000, 4760.000000, 4860.000000
1709.067368, -1.770599, 0.319906, 1073.000000, 1075.500000, 4880.000000, 4980.000000, 0.210000, 1145.000000, 1147.500000, 4880.000000, 4980.000000
1783.657355, -1.848029, 0.321628, 1073.000000, 1075.500000, 5000.000000, 5100.000000, 0.210000, 1148.000000, 1150.500000, 5000.000000, 5100.000000
1859.506212, -1.926778, 0.323339, 1073.000000, 1075.500000, 5120.000000, 5220.000000, 0.210000, 1151.000000, 1153.500000, 5120.000000, 5220.000000
1936.600641, -2.006832, 0.325042, 1073.000000, 1075.500000, 5240.000000, 5340.000000, 0.210000, 1154.000000, 1156.500000, 5240.000000, 5340.000000
2014.928111, -2.088180, 0.326735, 1073.000000, 1075.500000, 5360.000000, 5460.000000, 0.210000, 1157.000000, 1159.500000, 5360.000000, 5460.000000
2094.476828, -2.170809, 0.328420, 1073.000000, 1075.500000, 5480.000000, 5580.000000, 0.210000, 1160.000000, 1162.500000, 5480.000000, 5580.000000
2175.235706, -2.254708, 0.330096, 1073.000000, 1075.500000, 5600.000000, 5700.000000, 0.210000, 1163.000000, 1165.500000, 5600.000000, 5700.000000
2257.194336, -2.339867, 0.331764, 1073.000000, 1075.500000, 5720.000000, 5820.000000, 0.210000, 1166.000000, 1168.500000, 5720.000000, 5820.000000
2340.342956, -2.426276, 0.333424, 1073.000000, 1075.500000, 5840.000000, 5940.000000, 0.210000, 1169.000000, 1171.500000, 5840.000000, 5940.000000
2424.672422, -2.513925, 0.335076, 1073.000000, 1075.500000, 5960.000000, 6060.000000, 0.210000, 1172.000000, 1174.500000, 5960.000000, 6060.000000
2510.174178, -2.602806, 0.336719, 1073.000000, 1075.500000, 6080.000000, 6180.000000, 0.210000, 1175.000000, 1177.500000, 6080.000000, 6180.000000
2596.840226, -2.692910, 0.338356, 1073.000000, 1075.500000, 6200.000000, 6300.000000, 0.210000, 1178.000000, 1180.500000, 6200.000000, 6300.000000
2677.281137, -2.776559, 0.339849, 1073.000000, 1075.500000, 6320.000000, 6400.000000, 0.210000, 1181.000000, 1183.000000, 6320.000000, 6400.000000
2751.265922, -2.853500, 0.341202, 1073.000000, 1075.500000, 6420.000000, 6500.000000, 0.210000, 1183.500000, 1185.500000, 6420.000000, 6500.000000
2826.045799, -2.931277, 0.342549, 1073.000000, 1075.500000, 6520.000000, 6600.000000, 0.210000, 1186.000000, 1188.000000, 6520.000000, 6600.000000
2901.617190, -3.009886, 0.343892, 1073.000000, 1075.500000, 6620.000000, 6700.000000, 0.210000, 1188.500000, 1190.500000, 6620.000000, 6700.000000
2977.976726, -3.089325, 0.345230, 1073.000000, 1075.500000, 6720.000000, 6800.000000, 0.210000, 1191.000000, 1193.000000, 6720.000000, 6800.000000
3055.121235, -3.169589, 0.346563, 1073.000000, 1075.500000, 6820.000000, 6900.000000, 0.210000, 1193.500000, 1195.500000, 6820.000000, 6900.000000
3133.047740, -3.250677, 0.347892, 1073.000000, 1075.500000, 6920.000000, 7000.000000, 0.210000, 1196.000000, 1198.000000, 6920.000000, 7000.000000
3211.753442, -3.332584, 0.349216, 1073.000000, 1075.500000, 7020.000000, 7100.000000, 0.210000, 1198.500000, 1200.500000, 7020.000000, 7100.000000
3291.235714, -3.415309, 0.350536, 1073.000000, 1075.500000, 7120.000000, 7200.000000, 0.210000, 1201.000000, 1203.000000, 7120.000000, 7200.000000
3371.492094, -3.498849, 0.351852, 1073.000000, 1075.500000, 7220.000000, 7300.000000, 0.210000, 1203.500000, 1205.500000, 7220.000000, 7300.000000
3452.520273, -3.583202, 0.353163, 1073.000000, 1075.500000, 7320.000000, 7400.000000, 0.210000, 1206.000000, 1208.000000, 7320.000000, 7400.000000
3534.318093, -3.668365, 0.354471, 1073.000000, 1075.500000, 7420.000000, 7500.000000, 0.210000, 1208.500000, 1210.500000, 7420.000000, 7500.000000
3616.883532, -3.754336, 0.355774, 1073.000000, 1075.500000, 7520.000000, 7600.000000, 0.210000, 1211.000000, 1213.000000, 7520.000000, 7600.000000
3700.214703, -3.841114, 0.357074, 1073.000000, 1075.500000, 7620.000000, 7700.000000, 0.210000, 1213.500000, 1215.500000, 7620.000000, 7700.000000
3784.309841, -3.928696, 0.358370, 1073.000000, 1075.500000, 7720.000000, 7800.000000, 0.210000, 1216.000000, 1218.000000, 7720.000000, 7800.000000
3869.167304, -4.017082, 0.359662, 1073.000000, 1075.500000, 7820.000000, 7900.000000, 0.210000, 1218.500000, 1220.500000, 7820.000000, 7900.000000
3954.785561, -4.106269, 0.360950, 1073.000000, 1075.500000, 7920.000000, 8000.000000, 0.210000, 1221.000000, 1223.000000, 7920.000000, 8000.000000
4041.163184, -4.196255, 0.362235, 1073.000000, 1075.500000, 8020.000000, 8100.000000, 0.210000, 1223.500000, 1225.500000, 8020.000000, 8100.000000
4128.298852, -4.287041, 0.363516, 1073.000000, 1075.500000, 8120.000000, 8200.000000, 0.210000, 1226.000000, 1228.000000, 8120.000000, 8200.000000
4216.191332, -4.378624, 0.364794, 1073.000000, 1075.500000, 8220.000000, 8300.000000, 0.210000, 1228.500000, 1230.500000, 8220.000000, 8300.000000
4304.839486, -4.471003, 0.366068, 1073.000000, 1075.500000, 8320.000000, 8400.000000, 0.210000, 1231.000000, 1233.000000, 8320.000000, 8400.000000
4394.242259, -4.564177, 0.367339, 1073.000000, 1075.500000, 8420.000000, 8500.000000, 0.210000, 1233.500000, 1235.500000, 8420.000000, 8500.000000
4484.398675, -4.658145, 0.368607, 1073.000000, 1075.500000, 8520.000000, 8600.000000, 0.210000, 1236.000000, 1238.000000, 8520.000000, 8600.000000
4575.307835, -4.752907, 0.369872, 1073.000000, 1075.500000, 8620.000000, 8700.000000, 0.210000, 1238.500000, 1240.500000, 8620.000000, 8700.000000
4666.968910, -4.848461, 0.371133, 1073.000000, 1075.500000, 8720.000000, 8800.000000, 0.210000, 1241.000000, 1243.000000, 8720.000000, 8800.000000
4759.381138, -4.944807, 0.372392, 1073.000000, 1075.500000, 8820.000000, 8900.000000, 0.210000, 1243.500000, 1245.500000, 8820.000000, 8900.000000
4852.543822, -5.041944, 0.373647, 1073.000000, 1075.500000, 8920.000000, 9000.000000, 0.210000, 1246.000000, 1248.000000, 8920.000000, 9000.000000
4946.456323, -5.139871, 0.374900, 1073.000000, 1075.500000, 9020.000000, 9100.000000, 0.210000, 1248.500000, 1250.500000, 9020.000000, 9100.000000
5041.118057, -5.238588, 0.376149, 1073.000000, 1075.500000, 9120.000000, 9200.000000, 0.210000, 1251.000000, 1253.000000, 9120.000000, 9200.000000
5136.528494, -5.338094, 0.377396, 1073.000000, 1075.500000, 9220.000000, 9300.000000, 0.210000, 1253.500000, 1255.500000, 9220.000000, 9300.000000
5232.687154, -5.438388, 0.378640, 1073.000000, 1075.500000, 9320.000000, 9400.000000, 0.210000, 1256.000000, 1258.000000, 9320.000000, 9400.000000
5329.593603, -5.539471, 0.379882, 1073.000000, 1075.500000, 9420.000000, 9500.000000, 0.210000, 1258.500000, 1260.500000, 9420.000000, 9500.000000
5427.247451, -5.641342, 0.381121, 1073.000000, 1075.500000, 9520.000000, 9600.000000, 0.210000, 1261.000000, 1263.000000, 9520.000000, 9600.000000
5525.648348, -5.744000, 0.382357, 1073.000000, 1075.500000, 9620.000000, 9700.000000, 0.210000, 1263.500000, 1265.500000, 9620.000000, 9700.000000
5624.795984, -5.847446, 0.383591, 1073.000000, 1075.500000, 9720.000000, 9800.000000, 0.210000, 1266.000000, 1268.000000, 9720.000000, 9800.000000
5724.690084, -5.951678, 0.384822, 1073.000000, 1075.500000, 9820.000000, 9900.000000, 0.210000, 1268.500000, 1270.500000, 9820.000000, 9900.000000
5825.330408, -6.056697, 0.386050, 1073.000000, 1075.500000, 9920.000000, 10000.000000, 0.210000, 1271.000000, 1273.000000, 9920.000000, 10000.000000
336.487985, -0.347399, 0.274235, 1076.000000, 1078.500000, 2000.000000, 2100.000000, 0.210000
373.574546, -0.385687, 0.276206, 1076.000000, 1078.500000, 2120.000000, 2220.000000, 0.210000
412.445550, -0.425819, 0.278162, 1076.000000, 1078.500000, 2240.000000, 2340.000000, 0.210000
453.073413, -0.467768, 0.280103, 1076.000000, 1078.500000, 2360.000000, 2460.000000, 0.210000
495.430340, -0.511505, 0.282030, 1076.000000, 1078.500000, 2480.000000, 2580.000000, 0.210000
539.488468, -0.557003, 0.283943, 1076.000000, 1078.500000, 2600.000000, 2700.000000, 0.210000
585.219997, -0.604233, 0.285842, 1076.000000, 1078.500000, 2720.000000, 2820.000000, 0.210000
632.597309, -0.653169, 0.287729, 1076.000000, 1078.500000, 2840.000000, 2940.000000, 0.210000
681.593076, -0.703781, 0.289602, 1076.000000, 1078.500000, 2960.000000, 3060.000000, 0.210000
732.180362, -0.756044, 0.291463, 1076.000000, 1078.500000, 3080.000000, 3180.000000, 0.210000
784.332700, -0.809930, 0.293311, 1076.000000, 1078.500000, 3200.000000, 3300.000000, 0.210000
838.024177, -0.865413, 0.295148, 1076.000000, 1078.500000, 3320.000000, 3420.000000, 0.210000
893.229495, -0.922468, 0.296972, 1076.000000, 1078.500000, 3440.000000, 3540.000000, 0.210000
949.924027, -0.981071, 0.298785, 1076.000000, 1078.500000, 3560.000000, 3660.000000, 0.210000
1008.083863, -1.041196, 0.300586, 1076.000000, 1078.500000, 3680.000000, 3780.000000, 0.210000
1067.685850, -1.102821, 0.302376, 1076.000000, 1078.500000, 3800.000000, 3900.000000, 0.210000
1128.707619, -1.165924, 0.304155, 1076.000000, 1078.500000, 3920.000000, 4020.000000, 0.210000
1191.127608, -1.230481, 0.305923, 1076.000000, 1078.500000, 4040.000000, 4140.000000, 0.210000
1254.925077, -1.296473, 0.307680, 1076.000000, 1078.500000, 4160.000000, 4260.000000, 0.210000
1320.080116, -1.363880, 0.309427, 1076.000000, 1078.500000, 4280.000000, 4380.000000, 0.210000
1386.573650, -1.432682, 0.311163, 1076.000000, 1078.500000, 4400.000000, 4500.000000, 0.210000
1454.387438, -1.502861, 0.312890, 1076.000000, 1078.500000, 4520.000000, 4620.000000, 0.210000
1523.504060, -1.574400, 0.314607, 1076.000000, 1078.500000, 4640.000000, 4740.000000, 0.210000
1593.906917, -1.647281, 0.316314, 1076.000000, 1078.500000, 4760.000000, 4860.000000, 0.210000
1665.580210, -1.721488, 0.318011, 1076.000000, 1078.500000, 4880.000000, 4980.000000, 0.210000
1738.508926, -1.797008, 0.319699, 1076.000000, 1078.500000, 5000.000000, 5100.000000, 0.210000
1812.678819, -1.873824, 0.321379, 1076.000000, 1078.500000, 5120.000000, 5220.000000, 0.210000
1888.076391, -1.951924, 0.323049, 1076.000000, 1078.500000, 5240.000000, 5340.000000, 0.210000
1964.688865, -2.031295, 0.324711, 1076.000000, 1078.500000, 5360.000000, 5460.000000, 0.210000
2042.504166, -2.111925, 0.326364, 1076.000000, 1078.500000, 5480.000000, 5580.000000, 0.210000
2121.510897, -2.193801, 0.328009, 1076.000000, 1078.500000, 5600.000000, 5700.000000, 0.210000
2201.698307, -2.276914, 0.329645, 1076.000000, 1078.500000, 5720.000000, 5820.000000, 0.210000
2283.056273, -2.361253, 0.331274, 1076.000000, 1078.500000, 5840.000000, 5940.000000, 0.210000
2365.575270, -2.446808, 0.332895, 1076.000000, 1078.500000, 5960.000000, 6060.000000, 0.210000
2449.246345, -2.533571, 0.334509, 1076.000000, 1078.500000, 6080.000000, 6180.000000, 0.210000
2534.061095, -2.621532, 0.336115, 1076.000000, 1078.500000, 6200.000000, 6300.000000, 0.210000
2612.786873, -2.703195, 0.337581, 1076.000000, 1078.500000, 6320.000000, 6400.000000, 0.210000
2685.196515, -2.778312, 0.338908, 1076.000000, 1078.500000, 6420.000000, 6500.000000, 0.210000
2758.386129, -2.854246, 0.340231, 1076.000000, 1078.500000, 6520.000000, 6600.000000, 0.210000
2832.351890, -2.930995, 0.341549, 1076.000000, 1078.500000, 6620.000000, 6700.000000, 0.210000
2907.090182, -3.008554, 0.342863, 1076.000000, 1078.500000, 6720.000000, 6800.000000, 0.210000
2982.597590, -3.086921, 0.344171, 1076.000000, 1078.500000, 6820.000000, 6900.000000, 0.210000
3058.870892, -3.166092, 0.345476, 1076.000000, 1078.500000, 6920.000000, 7000.000000, 0.210000
3135.907047, -3.246064, 0.346776, 1076.000000, 1078.500000, 7020.000000, 7100.000000, 0.210000
3213.703189, -3.326833, 0.348072, 1076.000000, 1078.500000, 7120.000000, 7200.000000, 0.210000
3292.256619, -3.408399, 0.349363, 1076.000000, 1078.500000, 7220.000000, 7300.000000, 0.210000
3371.564797, -3.490756, 0.350651, 1076.000000, 1078.500000, 7320.000000, 7400.000000, 0.210000
3451.625335, -3.573904, 0.351934, 1076.000000, 1078.500000, 7420.000000, 7500.000000, 0.210000
3532.435985, -3.657841, 0.353214, 1076.000000, 1078.500000, 7520.000000, 7600.000000, 0.210000
3613.994640, -3.742563, 0.354490, 1076.000000, 1078.500000, 7620.000000, 7700.000000, 0.210000
3696.299321, -3.828069, 0.355762, 1076.000000, 1078.500000, 7720.000000, 7800.000000, 0.210000
3779.348173, -3.914357, 0.357030, 1076.000000, 1078.500000, 7820.000000, 7900.000000, 0.210000
3863.139458, -4.001426, 0.358294, 1076.000000, 1078.500000, 7920.000000, 8000.000000, 0.210000
3947.671549, -4.089273, 0.359556, 1076.000000, 1078.500000, 8020.000000, 8100.000000, 0.210000
4032.942926, -4.177897, 0.360813, 1076.000000, 1078.500000, 8120.000000, 8200.000000, 0.210000
4118.952167, -4.267297, 0.362067, 1076.000000, 1078.500000, 8220.000000, 8300.000000, 0.210000
4205.697948, -4.357471, 0.363318, 1076.000000, 1078.500000, 8320.000000, 8400.000000, 0.210000
4293.179031, -4.448419, 0.364566, 1076.000000, 1078.500000, 8420.000000, 8500.000000, 0.210000
4381.394267, -4.540138, 0.365810, 1076.000000, 1078.500000, 8520.000000, 8600.000000, 0.210000
4470.342586, -4.632628, 0.367051, 1076.000000, 1078.500000, 8620.000000, 8700.000000, 0.210000
4560.022993, -4.725888, 0.368289, 1076.000000, 1078.500000, 8720.000000, 8800.000000, 0.210000
4650.434567, -4.819917, 0.369525, 1076.000000, 1078.500000, 8820.000000, 8900.000000, 0.210000
4741.576454, -4.914714, 0.370757, 1076.000000, 1078.500000, 8920.000000, 9000.000000, 0.210000
4833.447867, -5.010279, 0.371986, 1076.000000, 1078.500000, 9020.000000, 9100.000000, 0.210000
4926.048076, -5.106609, 0.373212, 1076.000000, 1078.500000, 9120.000000, 9200.000000, 0.210000
5019.376410, -5.203706, 0.374436, 1076.000000, 1078.500000, 9220.000000, 9300.000000, 0.210000
5113.432255, -5.301568, 0.375657, 1076.000000, 1078.500000, 9320.000000, 9400.000000, 0.210000
5208.215044, -5.400195, 0.376875, 1076.000000, 1078.500000, 9420.000000, 9500.000000, 0.210000
5303.724261, -5.499586, 0.378090, 1076.000000, 1078.500000, 9520.000000, 9600.000000, 0.210000
5399.959435, -5.599740, 0.379303, 1076.000000, 1078.500000, 9620.000000, 9700.000000, 0.210000
5496.920137, -5.700658, 0.380514, 1076.000000, 1078.500000, 9720.000000, 9800.000000, 0.210000
5594.605978, -5.802338, 0.381722, 1076.000000, 1078.500000, 9820.000000, 9900.000000, 0.210000
5693.016610, -5.904782, 0.382927, 1076.000000, 1078.500000, 9920.000000, 10000.000000, 0.210000
327.044910, -0.336898, 0.273316, 1079.000000, 1081.500000, 2000.000000, 2100.000000, 0.210000
363.082900, -0.374019, 0.275241, 1079.000000, 1081.500000, 2120.000000, 2220.000000, 0.210000
400.864309, -0.412938, 0.277151, 1079.000000, 1081.500000, 2240.000000, 2340.000000, 0.210000
440.363749, -0.453628, 0.279048, 1079.000000, 1081.500000, 2360.000000, 2460.000000, 0.210000
481.555554, -0.496065, 0.280931, 1079.000000, 1081.500000, 2480.000000, 2580.000000, 0.210000
524.413902, -0.540223, 0.282801, 1079.000000, 1081.500000, 2600.000000, 2700.000000, 0.210000
568.912937, -0.586075, 0.284658, 1079.000000, 1081.500000, 2720.000000, 2820.000000, 0.210000
615.026883, -0.633595, 0.286502, 1079.000000, 1081.500000, 2840.000000, 2940.000000, 0.210000
662.730142, -0.682758, 0.288335, 1079.000000, 1081.500000, 2960.000000, 3060.000000, 0.210000
711.997386, -0.733538, 0.290155, 1079.000000, 1081.500000, 3080.000000, 3180.000000, 0.210000
762.803642, -0.785911, 0.291963, 1079.000000, 1081.500000, 3200.000000, 3300.000000, 0.210000
815.124365, -0.839851, 0.293760, 1079.000000, 1081.500000, 3320.000000, 3420.000000, 0.210000
868.935501, -0.895334, 0.295546, 1079.000000, 1081.500000, 3440.000000, 3540.000000, 0.210000
924.213547, -0.952338, 0.297321, 1079.000000, 1081.500000, 3560.000000, 3660.000000, 0.210000
980.935597, -1.010838, 0.299084, 1079.000000, 1081.500000, 3680.000000, 3780.000000, 0.210000
1039.079382, -1.070813, 0.300837, 1079.000000, 1081.500000, 3800.000000, 3900.000000, 0.210000
1098.623306, -1.132240, 0.302580, 1079.000000, 1081.500000, 3920.000000, 4020.000000, 0.210000
1159.546468, -1.195099, 0.304312, 1079.000000, 1081.500000, 4040.000000, 4140.000000, 0.210000
1221.828688, -1.259370, 0.306034, 1079.000000, 1081.500000, 4160.000000, 4260.000000, 0.210000
1285.450516, -1.325032, 0.307746, 1079.000000, 1081.500000, 4280.000000, 4380.000000, 0.210000
1350.393244, -1.392068, 0.309448, 1079.000000, 1081.500000, 4400.000000, 4500.000000, 0.210000
1416.638909, -1.460459, 0.311141, 1079.000000, 1081.500000, 4520.000000, 4620.000000, 0.210000
