Coefficients constant [W],Coefficients T [W/K],Coefficients j [W/(A/m^2)],T_start [K],T_end [K],j_start [A/m^2],j_end [A/m^2],Area [m^2],Temperature starts,Temperature ends,Current density starts,Current density ends
344.298498, -1.311553, 0.472382, 293.000000, 295.500000, 1500.000000, 2078.125000, 0.210000, 293.000000, 295.500000, 1500.000000, 2078.125000
520.467596, -2.008468, 0.485936, 293.000000, 295.500000, 2193.750000, 2771.875000, 0.210000, 296.000000, 298.500000, 2193.750000, 2771.875000
723.482437, -2.820696, 0.498662, 293.000000, 295.500000, 2887.500000, 3465.625000, 0.210000, 299.000000, 301.500000, 2887.500000, 3465.625000
953.681565, -3.749723, 0.510918, 293.000000, 295.500000, 3581.250000, 4159.375000, 0.210000, 302.000000, 304.500000, 3581.250000, 4159.375000
1211.217318, -4.796427, 0.522885, 293.000000, 295.500000, 4275.000000, 4853.125000, 0.210000, 305.000000, 307.500000, 4275.000000, 4853.125000
1496.129491, -5.961357, 0.534670, 293.000000, 295.500000, 4968.750000, 5546.875000, 0.210000, 308.000000, 310.500000, 4968.750000, 5546.875000
1808.376458, -7.244855, 0.546343, 293.000000, 295.500000, 5662.500000, 6240.625000, 0.210000, 311.000000, 313.500000, 5662.500000, 6240.625000
2147.847936, -8.647120, 0.557957, 293.000000, 295.500000, 6356.250000, 6934.375000, 0.210000, 314.000000, 316.500000, 6356.250000, 6934.375000
2514.367886, -10.168244, 0.569551, 293.000000, 295.500000, 7050.000000, 7628.125000, 0.210000, 317.000000, 319.500000, 7050.000000, 7628.125000
2907.690678, -11.808231, 0.581162, 293.000000, 295.500000, 7743.750000, 8321.875000, 0.210000, 320.000000, 322.500000, 7743.750000, 8321.875000
3327.491382, -13.567000, 0.592823, 293.000000, 295.500000, 8437.500000, 9015.625000, 0.210000, 323.000000, 325.500000, 8437.500000, 9015.625000
3734.672381, -15.281913, 0.603584, 293.000000, 295.500000, 9131.250000, 9593.750000, 0.210000, 326.000000, 328.000000, 9131.250000, 9593.750000
4123.987953, -16.928647, 0.613451, 293.000000, 295.500000, 9709.375000, 10171.875000, 0.210000, 328.500000, 330.500000, 9709.375000, 10171.875000
4530.678320, -18.657432, 0.623422, 293.000000, 295.500000, 10287.500000, 10750.000000, 0.210000, 331.000000, 333.000000, 10287.500000, 10750.000000
4954.267895, -20.468038, 0.633524, 293.000000, 295.500000, 10865.625000, 11328.125000, 0.210000, 333.500000, 335.500000, 10865.625000, 11328.125000
5394.163145, -22.360179, 0.643787, 293.000000, 295.500000, 11443.750000, 11906.250000, 0.210000, 336.000000, 338.000000, 11443.750000, 11906.250000
5849.615796, -24.333499, 0.654251, 293.000000, 295.500000, 12021.875000, 12484.375000, 0.210000, 338.500000, 340.500000, 12021.875000, 12484.375000
6319.670533, -26.387561, 0.664962, 293.000000, 295.500000, 12600.000000, 13062.500000, 0.210000, 341.000000, 343.000000, 12600.000000, 13062.500000
6803.089074, -28.521821, 0.675981, 293.000000, 295.500000, 13178.125000, 13640.625000, 0.210000, 343.500000, 345.500000, 13178.125000, 13640.625000
7298.237203, -30.735599, 0.687387, 293.000000, 295.500000, 13756.250000, 14218.750000, 0.210000, 346.000000, 348.000000, 13756.250000, 14218.750000
7802.911710, -33.028037, 0.699284, 293.000000, 295.500000, 14334.375000, 14796.875000, 0.210000, 348.500000, 350.500000, 14334.375000, 14796.875000
8314.066192, -35.398032, 0.711818, 293.000000, 295.500000, 14912.500000, 15375.000000, 0.210000, 351.000000, 353.000000, 14912.500000, 15375.000000
8827.358791, -37.844142, 0.725195, 293.000000, 295.500000, 15490.625000, 15953.125000, 0.210000, 353.500000, 355.500000, 15490.625000, 15953.125000
9336.369696, -40.364428, 0.739718, 293.000000, 295.500000, 16068.750000, 16531.250000, 0.210000, 356.000000, 358.000000, 16068.750000, 16531.250000
9831.165895, -42.956203, 0.755859, 293.000000, 295.500000, 16646.875000, 17109.375000, 0.210000, 358.500000, 360.500000, 16646.875000, 17109.375000
10295.470118, -45.615583, 0.774389, 293.000000, 295.500000, 17225.000000, 17687.500000, 0.210000, 361.000000, 363.000000, 17225.000000, 17687.500000
10700.529669, -48.336641, 0.796673, 293.000000, 295.500000, 17803.125000, 18265.625000, 0.210000, 363.500000, 365.500000, 17803.125000, 18265.625000
10990.067335, -51.109625, 0.825384, 293.000000, 295.500000, 18381.250000, 18843.750000, 0.210000, 366.000000, 368.000000, 18381.250000, 18843.750000
11036.123326, -53.916635, 0.866610, 293.000000, 295.500000, 18959.375000, 19421.875000, 0.210000, 368.500000, 370.500000, 18959.375000, 19421.875000
10467.187950, -56.718406, 0.938045, 293.000000, 295.500000, 19537.500000, 20000.000000, 0.210000, 371.000000, 373.000000, 19537.500000, 20000.000000
349.942945, -1.314040, 0.469639, 296.000000, 298.500000, 1500.000000, 2078.125000, 0.210000
524.658290, -1.995623, 0.482718, 296.000000, 298.500000, 2193.750000, 2771.875000, 0.210000
724.186728, -2.783331, 0.494962, 296.000000, 298.500000, 2887.500000, 3465.625000, 0.210000
948.870256, -3.678651, 0.506731, 296.000000, 298.500000, 3581.250000, 4159.375000, 0.210000
1198.862766, -4.682461, 0.518208, 296.000000, 298.500000, 4275.000000, 4853.125000, 0.210000
1474.204458, -5.795308, 0.529501, 296.000000, 298.500000, 4968.750000, 5546.875000, 0.210000
1774.853280, -7.017536, 0.540681, 296.000000, 298.500000, 5662.500000, 6240.625000, 0.210000
2100.697827, -8.349343, 0.551801, 296.000000, 298.500000, 6356.250000, 6934.375000, 0.210000
2451.560265, -9.790822, 0.562901, 296.000000, 298.500000, 7050.000000, 7628.125000, 0.210000
2827.192458, -11.341974, 0.574019, 296.000000, 298.500000, 7743.750000, 8321.875000, 0.210000
3227.266164, -13.002723, 0.585186, 296.000000, 298.500000, 8437.500000, 9015.625000, 0.210000
3614.606200, -14.619829, 0.595495, 296.000000, 298.500000, 9131.250000, 9593.750000, 0.210000
3984.361545, -16.170842, 0.604953, 296.000000, 298.500000, 9709.375000, 10171.875000, 0.210000
4370.067196, -17.797526, 0.614515, 296.000000, 298.500000, 10287.500000, 10750.000000, 0.210000
4771.242715, -19.499651, 0.624210, 296.000000, 298.500000, 10865.625000, 11328.125000, 0.210000
5187.288519, -21.276930, 0.634068, 296.000000, 298.500000, 11443.750000, 11906.250000, 0.210000
5617.448705, -23.129008, 0.644128, 296.000000, 298.500000, 12021.875000, 12484.375000, 0.210000
6060.758217, -25.055447, 0.654438, 296.000000, 298.500000, 12600.000000, 13062.500000, 0.210000
6515.966151, -27.055704, 0.665060, 296.000000, 298.500000, 13178.125000, 13640.625000, 0.210000
6981.421625, -29.129099, 0.676072, 296.000000, 298.500000, 13756.250000, 14218.750000, 0.210000
7454.898972, -31.274774, 0.687580, 296.000000, 298.500000, 14334.375000, 14796.875000, 0.210000
7933.320725, -33.491625, 0.699732, 296.000000, 298.500000, 14912.500000, 15375.000000, 0.210000
8412.300760, -35.778211, 0.712735, 296.000000, 298.500000, 15490.625000, 15953.125000, 0.210000
8885.353815, -38.132593, 0.726896, 296.000000, 298.500000, 16068.750000, 16531.250000, 0.210000
9342.445605, -40.552083, 0.742691, 296.000000, 298.500000, 16646.875000, 17109.375000, 0.210000
9767.132908, -43.032797, 0.760900, 296.000000, 298.500000, 17225.000000, 17687.500000, 0.210000
10130.369882, -45.568810, 0.782901, 296.000000, 298.500000, 17803.125000, 18265.625000, 0.210000
10375.305543, -48.150369, 0.811394, 296.000000, 298.500000, 18381.250000, 18843.750000, 0.210000
10372.675501, -50.759572, 0.852530, 296.000000, 298.500000, 18959.375000, 19421.875000, 0.210000
9747.182368, -53.357157, 0.924184, 296.000000, 298.500000, 19537.500000, 20000.000000, 0.210000
356.339654, -1.319270, 0.466937, 299.000000, 301.500000, 1500.000000, 2078.125000, 0.210000
530.181799, -1.988032, 0.479581, 299.000000, 301.500000, 2193.750000, 2771.875000, 0.210000
726.967705, -2.754545, 0.491380, 299.000000, 301.500000, 2887.500000, 3465.625000, 0.210000
947.042820, -3.620298, 0.502699, 299.000000, 301.500000, 3581.250000, 4159.375000, 0.210000
1190.562589, -4.586169, 0.513724, 299.000000, 301.500000, 4275.000000, 4853.125000, 0.210000
1457.567618, -5.652704, 0.524563, 299.000000, 301.500000, 4968.750000, 5546.875000, 0.210000
1748.015430, -6.820247, 0.535288, 299.000000, 301.500000, 5662.500000, 6240.625000, 0.210000
2061.793496, -8.088997, 0.545952, 299.000000, 301.500000, 6356.250000, 6934.375000, 0.210000
2398.722186, -9.459047, 0.556597, 299.000000, 301.500000, 7050.000000, 7628.125000, 0.210000
2758.550863, -10.930398, 0.567258, 299.000000, 301.500000, 7743.750000, 8321.875000, 0.210000
3140.947969, -12.502972, 0.577970, 299.000000, 301.500000, 8437.500000, 9015.625000, 0.210000
3510.467292, -14.032004, 0.587863, 299.000000, 301.500000, 9131.250000, 9593.750000, 0.210000
3862.620586, -15.496747, 0.596942, 299.000000, 301.500000, 9709.375000, 10171.875000, 0.210000
4229.413109, -17.031347, 0.606128, 299.000000, 301.500000, 10287.500000, 10750.000000, 0.210000
4610.359576, -18.635573, 0.615447, 299.000000, 301.500000, 10865.625000, 11328.125000, 0.210000
5004.854351, -20.309140, 0.624931, 299.000000, 301.500000, 11443.750000, 11906.250000, 0.210000
5412.133903, -22.051691, 0.634620, 299.000000, 301.500000, 12021.875000, 12484.375000, 0.210000
5831.223436, -23.862790, 0.644561, 299.000000, 301.500000, 12600.000000, 13062.500000, 0.210000
6260.859420, -25.741892, 0.654816, 299.000000, 301.500000, 13178.125000, 13640.625000, 0.210000
6699.374313, -27.688317, 0.665465, 299.000000, 301.500000, 13756.250000, 14218.750000, 0.210000
7144.519984, -29.701208, 0.676617, 299.000000, 301.500000, 14334.375000, 14796.875000, 0.210000
7593.187908, -31.779462, 0.688418, 299.000000, 301.500000, 14912.500000, 15375.000000, 0.210000
8040.947695, -33.921636, 0.701078, 299.000000, 301.500000, 15490.625000, 15953.125000, 0.210000
8481.248627, -36.125791, 0.714909, 299.000000, 301.500000, 16068.750000, 16531.250000, 0.210000
8903.955150, -38.389241, 0.730390, 299.000000, 301.500000, 16646.875000, 17109.375000, 0.210000
9292.458088, -40.708101, 0.748310, 299.000000, 301.500000, 17225.000000, 17687.500000, 0.210000
9617.418455, -43.076445, 0.770059, 299.000000, 301.500000, 17803.125000, 18265.625000, 0.210000
9821.411496, -45.484520, 0.798367, 299.000000, 301.500000, 18381.250000, 18843.750000, 0.210000
9773.868217, -47.914426, 0.839445, 299.000000, 301.500000, 18959.375000, 19421.875000, 0.210000
9095.703538, -50.326900, 0.911348, 299.000000, 301.500000, 19537.500000, 20000.000000, 0.210000
363.435729, -1.326964, 0.464269, 302.000000, 304.500000, 1500.000000, 2078.125000, 0.210000
536.937013, -1.985156, 0.476511, 302.000000, 304.500000, 2193.750000, 2771.875000, 0.210000
731.660381, -2.733460, 0.487900, 302.000000, 304.500000, 2887.500000, 3465.625000, 0.210000
947.954733, -3.573362, 0.498805, 302.000000, 304.500000, 3581.250000, 4159.375000, 0.210000
1185.977065, -4.505741, 0.509412, 302.000000, 304.500000, 4275.000000, 4853.125000, 0.210000
1445.768391, -5.531144, 0.519831, 302.000000, 304.500000, 4968.750000, 5546.875000, 0.210000
1727.285810, -6.649914, 0.530136, 302.000000, 304.500000, 5662.500000, 6240.625000, 0.210000
2030.415667, -7.862251, 0.540379, 302.000000, 304.500000, 6356.250000, 6934.375000, 0.210000
2354.976538, -9.168246, 0.550602, 302.000000, 304.500000, 7050.000000, 7628.125000, 0.210000
2700.715280, -10.567902, 0.560842, 302.000000, 304.500000, 7743.750000, 8321.875000, 0.210000
3067.297026, -12.061140, 0.571134, 302.000000, 304.500000, 8437.500000, 9015.625000, 0.210000
3420.828991, -13.510832, 0.580641, 302.000000, 304.500000, 9131.250000, 9593.750000, 0.210000
3757.156851, -14.897789, 0.589372, 302.000000, 304.500000, 9709.375000, 10171.875000, 0.210000
4106.915402, -16.349296, 0.598209, 302.000000, 304.500000, 10287.500000, 10750.000000, 0.210000
4469.614511, -17.865124, 0.607182, 302.000000, 304.500000, 10865.625000, 11328.125000, 0.210000
4844.642489, -19.444985, 0.616321, 302.000000, 304.500000, 11443.750000, 11906.250000, 0.210000
5231.228178, -21.088526, 0.625666, 302.000000, 304.500000, 12021.875000, 12484.375000, 0.210000
5628.387041, -22.795308, 0.635267, 302.000000, 304.500000, 12600.000000, 13062.500000, 0.210000
6034.842924, -24.564786, 0.645184, 302.000000, 304.500000, 13178.125000, 13640.625000, 0.210000
6448.911623, -26.396283, 0.655501, 302.000000, 304.500000, 13756.250000, 14218.750000, 0.210000
6868.322545, -28.288939, 0.666324, 302.000000, 304.500000, 14334.375000, 14796.875000, 0.210000
7289.936104, -30.241651, 0.677803, 302.000000, 304.500000, 14912.500000, 15375.000000, 0.210000
7709.277644, -32.252977, 0.690150, 302.000000, 304.500000, 15490.625000, 15953.125000, 0.210000
8119.730995, -34.320979, 0.703679, 302.000000, 304.500000, 16068.750000, 16531.250000, 0.210000
8511.059331, -36.442969, 0.718875, 302.000000, 304.500000, 16646.875000, 17109.375000, 0.210000
8866.487523, -38.615064, 0.736534, 302.000000, 304.500000, 17225.000000, 17687.500000, 0.210000
9156.383439, -40.831336, 0.758061, 302.000000, 304.500000, 17803.125000, 18265.625000, 0.210000
9322.748555, -43.082034, 0.786212, 302.000000, 304.500000, 18381.250000, 18843.750000, 0.210000
9233.709274, -45.349256, 0.827260, 302.000000, 304.500000, 18959.375000, 19421.875000, 0.210000
8506.392822, -47.593740, 0.899442, 302.000000, 304.500000, 19537.500000, 20000.000000, 0.210000
371.184040, -1.336871, 0.461626, 305.000000, 307.500000, 1500.000000, 2078.125000, 0.210000
544.833844, -1.986520, 0.473498, 305.000000, 307.500000, 2193.750000, 2771.875000, 0.210000
738.117757, -2.719297, 0.484509, 305.000000, 307.500000, 2887.500000, 3465.625000, 0.210000
951.388131, -3.536690, 0.495031, 305.000000, 307.500000, 3581.250000, 4159.375000, 0.210000
1184.803517, -4.439576, 0.505252, 305.000000, 307.500000, 4275.000000, 4853.125000, 0.210000
1438.405332, -5.428504, 0.515283, 305.000000, 307.500000, 4968.750000, 5546.875000, 0.210000
1712.150251, -6.503816, 0.525199, 305.000000, 307.500000, 5662.500000, 6240.625000, 0.210000
2005.923497, -7.665712, 0.535052, 305.000000, 307.500000, 6356.250000, 6934.375000, 0.210000
2319.541848, -8.914283, 0.544885, 305.000000, 307.500000, 7050.000000, 7628.125000, 0.210000
2652.749660, -10.249532, 0.554736, 305.000000, 307.500000, 7743.750000, 8321.875000, 0.210000
3005.208750, -11.671381, 0.564638, 305.000000, 307.500000, 8437.500000, 9015.625000, 0.210000
3344.420198, -13.049587, 0.573790, 305.000000, 307.500000, 9131.250000, 9593.750000, 0.210000
3666.537481, -14.366383, 0.582198, 305.000000, 307.500000, 9709.375000, 10171.875000, 0.210000
4000.969766, -15.742882, 0.590714, 305.000000, 307.500000, 10287.500000, 10750.000000, 0.210000
4347.222070, -17.178851, 0.599365, 305.000000, 307.500000, 10865.625000, 11328.125000, 0.210000
4704.676657, -18.674005, 0.608186, 305.000000, 307.500000, 11443.750000, 11906.250000, 0.210000
5072.554736, -20.227989, 0.617215, 305.000000, 307.500000, 12021.875000, 12484.375000, 0.210000
5449.862031, -21.840365, 0.626501, 305.000000, 307.500000, 12600.000000, 13062.500000, 0.210000
5835.309764, -23.510588, 0.636108, 305.000000, 307.500000, 13178.125000, 13640.625000, 0.210000
6227.197070, -25.237981, 0.646117, 305.000000, 307.500000, 13756.250000, 14218.750000, 0.210000
6623.230891, -27.021683, 0.656638, 305.000000, 307.500000, 14334.375000, 14796.875000, 0.210000
7020.240585, -28.860592, 0.667822, 305.000000, 307.500000, 14912.500000, 15375.000000, 0.210000
7413.707226, -30.753267, 0.679882, 305.000000, 307.500000, 15490.625000, 15953.125000, 0.210000
7796.949194, -32.697767, 0.693136, 305.000000, 307.500000, 16068.750000, 16531.250000, 0.210000
8159.628390, -34.691407, 0.708073, 305.000000, 307.500000, 16646.875000, 17109.375000, 0.210000
8484.803731, -36.730302, 0.725497, 305.000000, 307.500000, 17225.000000, 17687.500000, 0.210000
8742.549941, -38.808524, 0.746828, 305.000000, 307.500000, 17803.125000, 18265.625000, 0.210000
8874.294726, -40.916324, 0.774848, 305.000000, 307.500000, 18381.250000, 18843.750000, 0.210000
8746.859886, -43.035799, 0.815894, 305.000000, 307.500000, 18959.375000, 19421.875000, 0.210000
7973.584953, -45.127686, 0.888381, 305.000000, 307.500000, 19537.500000, 20000.000000, 0.210000
379.542525, -1.348773, 0.459001, 308.000000, 310.500000, 1500.000000, 2078.125000, 0.210000
553.791891, -1.991701, 0.470532, 308.000000, 310.500000, 2193.750000, 2771.875000, 0.210000
746.208641, -2.711368, 0.481194, 308.000000, 310.500000, 2887.500000, 3465.625000, 0.210000
957.148580, -3.509260, 0.491362, 308.000000, 310.500000, 3581.250000, 4159.375000, 0.210000
1186.771811, -4.386255, 0.501226, 308.000000, 310.500000, 4275.000000, 4853.125000, 0.210000
1435.120158, -5.342901, 0.510898, 308.000000, 310.500000, 4968.750000, 5546.875000, 0.210000
1702.149872, -6.379541, 0.520454, 308.000000, 310.500000, 5662.500000, 6240.625000, 0.210000
1987.745049, -7.496373, 0.529946, 308.000000, 310.500000, 6356.250000, 6934.375000, 0.210000
2291.720676, -8.693491, 0.539419, 308.000000, 310.500000, 7050.000000, 7628.125000, 0.210000
2613.818601, -9.970896, 0.548908, 308.000000, 310.500000, 7743.750000, 8321.875000, 0.210000
2953.697331, -11.328510, 0.558450, 308.000000, 310.500000, 8437.500000, 9015.625000, 0.210000
3280.106494, -12.642302, 0.567273, 308.000000, 310.500000, 9131.250000, 9593.750000, 0.210000
3589.483688, -13.895807, 0.575382, 308.000000, 310.500000, 9709.375000, 10171.875000, 0.210000
3910.144398, -15.204576, 0.583600, 308.000000, 310.500000, 10287.500000, 10750.000000, 0.210000
4241.588791, -16.568377, 0.591956, 308.000000, 310.500000, 10865.625000, 11328.125000, 0.210000
4583.193080, -17.986926, 0.600482, 308.000000, 310.500000, 11443.750000, 11906.250000, 0.210000
4934.170845, -19.459867, 0.609218, 308.000000, 310.500000, 12021.875000, 12484.375000, 0.210000
5293.518070, -20.986761, 0.618214, 308.000000, 310.500000, 12600.000000, 13062.500000, 0.210000
5659.933353, -22.567066, 0.627534, 308.000000, 310.500000, 13178.125000, 13640.625000, 0.210000
6031.699166, -24.200101, 0.637260, 308.000000, 310.500000, 13756.250000, 14218.750000, 0.210000
6406.499990, -25.885008, 0.647503, 308.000000, 310.500000, 14334.375000, 14796.875000, 0.210000
6781.134123, -27.620686, 0.658415, 308.000000, 310.500000, 14912.500000, 15375.000000, 0.210000
7151.038371, -29.405689, 0.670213, 308.000000, 310.500000, 15490.625000, 15953.125000, 0.210000
7509.465662, -31.238082, 0.683215, 308.000000, 310.500000, 16068.750000, 16531.250000, 0.210000
7845.976627, -33.115175, 0.697918, 308.000000, 310.500000, 16646.875000, 17109.375000, 0.210000
8143.464229, -35.033086, 0.715132, 308.000000, 310.500000, 17225.000000, 17687.500000, 0.210000
8371.710045, -36.985887, 0.736290, 308.000000, 310.500000, 17803.125000, 18265.625000, 0.210000
8471.568013, -38.963827, 0.764204, 308.000000, 310.500000, 18381.250000, 18843.750000, 0.210000
8308.555331, -40.949004, 0.805271, 308.000000, 310.500000, 18959.375000, 19421.875000, 0.210000
7492.223834, -42.902155, 0.878086, 308.000000, 310.500000, 19537.500000, 20000.000000, 0.210000
388.473581, -1.362472, 0.456389, 311.000000, 313.500000, 1500.000000, 2078.125000, 0.210000
563.739276, -2.000326, 0.467606, 311.000000, 313.500000, 2193.750000, 2771.875000, 0.210000
755.815750, -2.709061, 0.477944, 311.000000, 313.500000, 2887.500000, 3465.625000, 0.210000
965.062259, -3.490166, 0.487784, 311.000000, 313.500000, 3581.250000, 4159.375000, 0.210000
1191.640460, -4.344517, 0.497318, 311.000000, 313.500000, 4275.000000, 4853.125000, 0.210000
1435.592582, -5.272663, 0.506658, 311.000000, 313.500000, 4968.750000, 5546.875000, 0.210000
1696.874451, -6.274946, 0.515880, 311.000000, 313.500000, 5662.500000, 6240.625000, 0.210000
1975.369039, -7.351567, 0.525038, 311.000000, 313.500000, 6356.250000, 6934.375000, 0.210000
2270.889538, -8.502616, 0.534176, 311.000000, 313.500000, 7050.000000, 7628.125000, 0.210000
2583.175294, -9.728096, 0.543331, 311.000000, 313.500000, 7743.750000, 8321.875000, 0.210000
2911.881497, -11.027929, 0.552540, 311.000000, 313.500000, 8437.500000, 9015.625000, 0.210000
3226.873757, -12.283685, 0.561057, 311.000000, 313.500000, 9131.250000, 9593.750000, 0.210000
