Coefficients constant [W],Coefficients T [W/K],Coefficients j [W/(A/m^2)],T_start [K],T_end [K],j_start [A/m^2],j_end [A/m^2],Area [m^2],Temperature starts,Temperature ends,Current density starts,Current density ends
360.228328, -0.372266, 0.275708, 1073.000000, 1078.500000, 2000.000000, 2220.000000, 0.210000, 1073.000000, 1078.500000, 2000.000000, 2220.000000
439.071599, -0.453762, 0.279666, 1073.000000, 1078.500000, 2240.000000, 2460.000000, 0.210000, 1079.000000, 1084.500000, 2240.000000, 2460.000000
524.961858, -0.542555, 0.283564, 1073.000000, 1078.500000, 2480.000000, 2700.000000, 0.210000, 1085.000000, 1090.500000, 2480.000000, 2700.000000
617.668240, -0.638412, 0.287407, 1073.000000, 1078.500000, 2720.000000, 2940.000000, 0.210000, 1091.000000, 1096.500000, 2720.000000, 2940.000000
716.962694, -0.741104, 0.291196, 1073.000000, 1078.500000, 2960.000000, 3180.000000, 0.210000, 1097.000000, 1102.500000, 2960.000000, 3180.000000
822.623558, -0.850408, 0.294934, 1073.000000, 1078.500000, 3200.000000, 3420.000000, 0.210000, 1103.000000, 1108.500000, 3200.000000, 3420.000000
934.438367, -0.966108, 0.298622, 1073.000000, 1078.500000, 3440.000000, 3660.000000, 0.210000, 1109.000000, 1114.500000, 3440.000000, 3660.000000
1052.205955, -1.088002, 0.302262, 1073.000000, 1078.500000, 3680.000000, 3900.000000, 0.210000, 1115.000000, 1120.500000, 3680.000000, 3900.000000
1175.737894, -1.215900, 0.305857, 1073.000000, 1078.500000, 3920.000000, 4140.000000, 0.210000, 1121.000000, 1126.500000, 3920.000000, 4140.000000
1304.859376, -1.349626, 0.309408, 1073.000000, 1078.500000, 4160.000000, 4380.000000, 0.210000, 1127.000000, 1132.500000, 4160.000000, 4380.000000
1439.409613, -1.489018, 0.312916, 1073.000000, 1078.500000, 4400.000000, 4620.000000, 0.210000, 1133.000000, 1138.500000, 4400.000000, 4620.000000
1579.241841, -1.633927, 0.316383, 1073.000000, 1078.500000, 4640.000000, 4860.000000, 0.210000, 1139.000000, 1144.500000, 4640.000000, 4860.000000
1724.223028, -1.784219, 0.319812, 1073.000000, 1078.500000, 4880.000000, 5100.000000, 0.210000, 1145.000000, 1150.500000, 4880.000000, 5100.000000
1874.233341, -1.939774, 0.323203, 1073.000000, 1078.500000, 5120.000000, 5340.000000, 0.210000, 1151.000000, 1156.500000, 5120.000000, 5340.000000
2029.165453, -2.100482, 0.326558, 1073.000000, 1078.500000, 5360.000000, 5580.000000, 0.210000, 1157.000000, 1162.500000, 5360.000000, 5580.000000
2188.923747, -2.266249, 0.329879, 1073.000000, 1078.500000, 5600.000000, 5820.000000, 0.210000, 1163.000000, 1168.500000, 5600.000000, 5820.000000
2353.423448, -2.436987, 0.333168, 1073.000000, 1078.500000, 5840.000000, 6060.000000, 0.210000, 1169.000000, 1174.500000, 5840.000000, 6060.000000
2522.589743, -2.612621, 0.336425, 1073.000000, 1078.500000, 6080.000000, 6300.000000, 0.210000, 1175.000000, 1180.500000, 6080.000000, 6300.000000
2696.356894, -2.793086, 0.339653, 1073.000000, 1078.500000, 6320.000000, 6540.000000, 0.210000, 1181.000000, 1186.500000, 6320.000000, 6540.000000
2874.667379, -2.978322, 0.342853, 1073.000000, 1078.500000, 6560.000000, 6780.000000, 0.210000, 1187.000000, 1192.500000, 6560.000000, 6780.000000
3057.471074, -3.168280, 0.346026, 1073.000000, 1078.500000, 6800.000000, 7020.000000, 0.210000, 1193.000000, 1198.500000, 6800.000000, 7020.000000
3244.724477, -3.362914, 0.349173, 1073.000000, 1078.500000, 7040.000000, 7260.000000, 0.210000, 1199.000000, 1204.500000, 7040.000000, 7260.000000
3436.389995, -3.562188, 0.352296, 1073.000000, 1078.500000, 7280.000000, 7500.000000, 0.210000, 1205.000000, 1210.500000, 7280.000000, 7500.000000
3632.435279, -3.766068, 0.355395, 1073.000000, 1078.500000, 7520.000000, 7740.000000, 0.210000, 1211.000000, 1216.500000, 7520.000000, 7740.000000
3832.832625, -3.974527, 0.358473, 1073.000000, 1078.500000, 7760.000000, 7980.000000, 0.210000, 1217.000000, 1222.500000, 7760.000000, 7980.000000
4037.558422, -4.187540, 0.361530, 1073.000000, 1078.500000, 8000.000000, 8220.000000, 0.210000, 1223.000000, 1228.500000, 8000.000000, 8220.000000
4246.592662, -4.405087, 0.364567, 1073.000000, 1078.500000, 8240.000000, 8460.000000, 0.210000, 1229.000000, 1234.500000, 8240.000000, 8460.000000
4450.906760, -4.617779, 0.367459, 1073.000000, 1078.500000, 8480.000000, 8680.000000, 0.210000, 1235.000000, 1240.000000, 8480.000000, 8680.000000
4650.050361, -4.825122, 0.370210, 1073.000000, 1078.500000, 8700.000000, 8900.000000, 0.210000, 1240.500000, 1245.500000, 8700.000000, 8900.000000
4852.779534, -5.036240, 0.372947, 1073.000000, 1078.500000, 8920.000000, 9120.000000, 0.210000, 1246.000000, 1251.000000, 8920.000000, 9120.000000
5059.086655, -5.251126, 0.375669, 1073.000000, 1078.500000, 9140.000000, 9340.000000, 0.210000, 1251.500000, 1256.500000, 9140.000000, 9340.000000
5268.965428, -5.469772, 0.378378, 1073.000000, 1078.500000, 9360.000000, 9560.000000, 0.210000, 1257.000000, 1262.000000, 9360.000000, 9560.000000
5482.410717, -5.692174, 0.381074, 1073.000000, 1078.500000, 9580.000000, 9780.000000, 0.210000, 1262.500000, 1267.500000, 9580.000000, 9780.000000
5699.418402, -5.918328, 0.383759, 1073.000000, 1078.500000, 9800.000000, 10000.000000, 0.210000, 1268.000000, 1273.000000, 9800.000000, 10000.000000
340.287192, -0.350092, 0.273822, 1079.000000, 1084.500000, 2000.000000, 2220.000000, 0.210000
414.774243, -0.426736, 0.277599, 1079.000000, 1084.500000, 2240.000000, 2460.000000, 0.210000
496.006173, -0.510330, 0.281323, 1079.000000, 1084.500000, 2480.000000, 2700.000000, 0.210000
583.784676, -0.600674, 0.284995, 1079.000000, 1084.500000, 2720.000000, 2940.000000, 0.210000
677.911058, -0.697571, 0.288620, 1079.000000, 1084.500000, 2960.000000, 3180.000000, 0.210000
778.189371, -0.800821, 0.292198, 1079.000000, 1084.500000, 3200.000000, 3420.000000, 0.210000
884.428994, -0.910236, 0.295731, 1079.000000, 1084.500000, 3440.000000, 3660.000000, 0.210000
996.446692, -1.025630, 0.299222, 1079.000000, 1084.500000, 3680.000000, 3900.000000, 0.210000
1114.068188, -1.146830, 0.302671, 1079.000000, 1084.500000, 3920.000000, 4140.000000, 0.210000
1237.129273, -1.273670, 0.306080, 1079.000000, 1084.500000, 4160.000000, 4380.000000, 0.210000
1365.476524, -1.405996, 0.309451, 1079.000000, 1084.500000, 4400.000000, 4620.000000, 0.210000
1498.967679, -1.543665, 0.312785, 1079.000000, 1084.500000, 4640.000000, 4860.000000, 0.210000
1637.471722, -1.686547, 0.316082, 1079.000000, 1084.500000, 4880.000000, 5100.000000, 0.210000
1780.868741, -1.834521, 0.319345, 1079.000000, 1084.500000, 5120.000000, 5340.000000, 0.210000
1929.049606, -1.987477, 0.322575, 1079.000000, 1084.500000, 5360.000000, 5580.000000, 0.210000
2081.915511, -2.145317, 0.325773, 1079.000000, 1084.500000, 5600.000000, 5820.000000, 0.210000
2239.377423, -2.307950, 0.328941, 1079.000000, 1084.500000, 5840.000000, 6060.000000, 0.210000
2401.355465, -2.475296, 0.332079, 1079.000000, 1084.500000, 6080.000000, 6300.000000, 0.210000
2567.778274, -2.647285, 0.335189, 1079.000000, 1084.500000, 6320.000000, 6540.000000, 0.210000
2738.582335, -2.823851, 0.338273, 1079.000000, 1084.500000, 6560.000000, 6780.000000, 0.210000
2913.711334, -3.004939, 0.341331, 1079.000000, 1084.500000, 6800.000000, 7020.000000, 0.210000
3093.115513, -3.190499, 0.344364, 1079.000000, 1084.500000, 7040.000000, 7260.000000, 0.210000
3276.751066, -3.380486, 0.347374, 1079.000000, 1084.500000, 7280.000000, 7500.000000, 0.210000
3464.579559, -3.574862, 0.350362, 1079.000000, 1084.500000, 7520.000000, 7740.000000, 0.210000
3656.567392, -3.773593, 0.353329, 1079.000000, 1084.500000, 7760.000000, 7980.000000, 0.210000
3852.685295, -3.976650, 0.356275, 1079.000000, 1084.500000, 8000.000000, 8220.000000, 0.210000
4052.907870, -4.184007, 0.359201, 1079.000000, 1084.500000, 8240.000000, 8460.000000, 0.210000
4248.583285, -4.386711, 0.361989, 1079.000000, 1084.500000, 8480.000000, 8680.000000, 0.210000
4439.278737, -4.584290, 0.364639, 1079.000000, 1084.500000, 8700.000000, 8900.000000, 0.210000
4633.376896, -4.785435, 0.367276, 1079.000000, 1084.500000, 8920.000000, 9120.000000, 0.210000
4830.866870, -4.990136, 0.369899, 1079.000000, 1084.500000, 9140.000000, 9340.000000, 0.210000
5031.739306, -5.198384, 0.372508, 1079.000000, 1084.500000, 9360.000000, 9560.000000, 0.210000
5235.986215, -5.410170, 0.375105, 1079.000000, 1084.500000, 9580.000000, 9780.000000, 0.210000
5443.600824, -5.625489, 0.377690, 1079.000000, 1084.500000, 9800.000000, 10000.000000, 0.210000
321.641874, -0.329456, 0.272050, 1085.000000, 1090.500000, 2000.000000, 2220.000000, 0.210000
392.003389, -0.401532, 0.275655, 1085.000000, 1090.500000, 2240.000000, 2460.000000, 0.210000
468.806314, -0.480213, 0.279212, 1085.000000, 1090.500000, 2480.000000, 2700.000000, 0.210000
551.881748, -0.565331, 0.282722, 1085.000000, 1090.500000, 2720.000000, 2940.000000, 0.210000
641.058270, -0.656714, 0.286188, 1085.000000, 1090.500000, 2960.000000, 3180.000000, 0.210000
736.164598, -0.754191, 0.289613, 1085.000000, 1090.500000, 3200.000000, 3420.000000, 0.210000
837.031864, -0.857594, 0.292997, 1085.000000, 1090.500000, 3440.000000, 3660.000000, 0.210000
943.495516, -0.966758, 0.296343, 1085.000000, 1090.500000, 3680.000000, 3900.000000, 0.210000
1055.396859, -1.081524, 0.299652, 1085.000000, 1090.500000, 3920.000000, 4140.000000, 0.210000
1172.584252, -1.201743, 0.302925, 1085.000000, 1090.500000, 4160.000000, 4380.000000, 0.210000
1294.913981, -1.327270, 0.306162, 1085.000000, 1090.500000, 4400.000000, 4620.000000, 0.210000
1422.250863, -1.457970, 0.309366, 1085.000000, 1090.500000, 4640.000000, 4860.000000, 0.210000
1554.468587, -1.593717, 0.312537, 1085.000000, 1090.500000, 4880.000000, 5100.000000, 0.210000
1691.449857, -1.734395, 0.315676, 1085.000000, 1090.500000, 5120.000000, 5340.000000, 0.210000
1833.086352, -1.879895, 0.318784, 1085.000000, 1090.500000, 5360.000000, 5580.000000, 0.210000
1979.278549, -2.030117, 0.321864, 1085.000000, 1090.500000, 5600.000000, 5820.000000, 0.210000
2129.935435, -2.184971, 0.324914, 1085.000000, 1090.500000, 5840.000000, 6060.000000, 0.210000
2284.974140, -2.344375, 0.327938, 1085.000000, 1090.500000, 6080.000000, 6300.000000, 0.210000
2444.319506, -2.508252, 0.330935, 1085.000000, 1090.500000, 6320.000000, 6540.000000, 0.210000
2607.903629, -2.676536, 0.333907, 1085.000000, 1090.500000, 6560.000000, 6780.000000, 0.210000
2775.665368, -2.849165, 0.336855, 1085.000000, 1090.500000, 6800.000000, 7020.000000, 0.210000
2947.549858, -3.026084, 0.339780, 1085.000000, 1090.500000, 7040.000000, 7260.000000, 0.210000
3123.508018, -3.207245, 0.342682, 1085.000000, 1090.500000, 7280.000000, 7500.000000, 0.210000
3303.496078, -3.392603, 0.345563, 1085.000000, 1090.500000, 7520.000000, 7740.000000, 0.210000
3487.475123, -3.582121, 0.348423, 1085.000000, 1090.500000, 7760.000000, 7980.000000, 0.210000
3675.410651, -3.775762, 0.351264, 1085.000000, 1090.500000, 8000.000000, 8220.000000, 0.210000
3867.272169, -3.973498, 0.354086, 1085.000000, 1090.500000, 8240.000000, 8460.000000, 0.210000
4054.764250, -4.166784, 0.356774, 1085.000000, 1090.500000, 8480.000000, 8680.000000, 0.210000
4237.469069, -4.355169, 0.359330, 1085.000000, 1090.500000, 8700.000000, 8900.000000, 0.210000
4423.415029, -4.546936, 0.361872, 1085.000000, 1090.500000, 8920.000000, 9120.000000, 0.210000
4612.587927, -4.742071, 0.364400, 1085.000000, 1090.500000, 9140.000000, 9340.000000, 0.210000
4804.975261, -4.940562, 0.366916, 1085.000000, 1090.500000, 9360.000000, 9560.000000, 0.210000
5000.566067, -5.142398, 0.369419, 1085.000000, 1090.500000, 9580.000000, 9780.000000, 0.210000
5199.350768, -5.347569, 0.371911, 1085.000000, 1090.500000, 9800.000000, 10000.000000, 0.210000
304.220945, -0.310260, 0.270384, 1091.000000, 1096.500000, 2000.000000, 2220.000000, 0.210000
370.683872, -0.378045, 0.273826, 1091.000000, 1096.500000, 2240.000000, 2460.000000, 0.210000
443.286305, -0.452096, 0.277224, 1091.000000, 1096.500000, 2480.000000, 2700.000000, 0.210000
521.885452, -0.532270, 0.280579, 1091.000000, 1096.500000, 2720.000000, 2940.000000, 0.210000
606.334683, -0.618422, 0.283894, 1091.000000, 1096.500000, 2960.000000, 3180.000000, 0.210000
696.485732, -0.710405, 0.287172, 1091.000000, 1096.500000, 3200.000000, 3420.000000, 0.210000
792.190652, -0.808071, 0.290413, 1091.000000, 1096.500000, 3440.000000, 3660.000000, 0.210000
893.303488, -0.911277, 0.293620, 1091.000000, 1096.500000, 3680.000000, 3900.000000, 0.210000
999.681706, -1.019879, 0.296793, 1091.000000, 1096.500000, 3920.000000, 4140.000000, 0.210000
1111.187362, -1.133742, 0.299933, 1091.000000, 1096.500000, 4160.000000, 4380.000000, 0.210000
1227.688025, -1.252734, 0.303042, 1091.000000, 1096.500000, 4400.000000, 4620.000000, 0.210000
1349.057488, -1.376729, 0.306120, 1091.000000, 1096.500000, 4640.000000, 4860.000000, 0.210000
1475.176267, -1.505610, 0.309168, 1091.000000, 1096.500000, 4880.000000, 5100.000000, 0.210000
1605.931921, -1.639263, 0.312187, 1091.000000, 1096.500000, 5120.000000, 5340.000000, 0.210000
1741.219221, -1.777586, 0.315179, 1091.000000, 1096.500000, 5360.000000, 5580.000000, 0.210000
1880.940180, -1.920480, 0.318143, 1091.000000, 1096.500000, 5600.000000, 5820.000000, 0.210000
2025.003978, -2.067855, 0.321081, 1091.000000, 1096.500000, 5840.000000, 6060.000000, 0.210000
2173.326794, -2.219629, 0.323993, 1091.000000, 1096.500000, 6080.000000, 6300.000000, 0.210000
2325.831570, -2.375724, 0.326882, 1091.000000, 1096.500000, 6320.000000, 6540.000000, 0.210000
2482.447727, -2.536071, 0.329746, 1091.000000, 1096.500000, 6560.000000, 6780.000000, 0.210000
2643.110835, -2.700605, 0.332588, 1091.000000, 1096.500000, 6800.000000, 7020.000000, 0.210000
2807.762272, -2.869269, 0.335408, 1091.000000, 1096.500000, 7040.000000, 7260.000000, 0.210000
2976.348852, -3.042009, 0.338207, 1091.000000, 1096.500000, 7280.000000, 7500.000000, 0.210000
3148.822464, -3.218778, 0.340986, 1091.000000, 1096.500000, 7520.000000, 7740.000000, 0.210000
3325.139706, -3.399533, 0.343745, 1091.000000, 1096.500000, 7760.000000, 7980.000000, 0.210000
3505.261523, -3.584235, 0.346486, 1091.000000, 1096.500000, 8000.000000, 8220.000000, 0.210000
3689.152866, -3.772849, 0.349208, 1091.000000, 1096.500000, 8240.000000, 8460.000000, 0.210000
3868.857272, -3.957221, 0.351801, 1091.000000, 1096.500000, 8480.000000, 8680.000000, 0.210000
4043.969771, -4.136914, 0.354266, 1091.000000, 1096.500000, 8700.000000, 8900.000000, 0.210000
4222.181276, -4.319826, 0.356719, 1091.000000, 1096.500000, 8920.000000, 9120.000000, 0.210000
4403.474369, -4.505940, 0.359158, 1091.000000, 1096.500000, 9140.000000, 9340.000000, 0.210000
4587.833453, -4.695242, 0.361584, 1091.000000, 1096.500000, 9360.000000, 9560.000000, 0.210000
4775.244591, -4.887716, 0.363999, 1091.000000, 1096.500000, 9580.000000, 9780.000000, 0.210000
4965.695362, -5.083351, 0.366402, 1091.000000, 1096.500000, 9800.000000, 10000.000000, 0.210000
287.952983, -0.292413, 0.268817, 1097.000000, 1102.500000, 2000.000000, 2220.000000, 0.210000
350.738624, -0.356172, 0.272106, 1097.000000, 1102.500000, 2240.000000, 2460.000000, 0.210000
419.365987, -0.425865, 0.275352, 1097.000000, 1102.500000, 2480.000000, 2700.000000, 0.210000
493.715147, -0.501374, 0.278559, 1097.000000, 1102.500000, 2720.000000, 2940.000000, 0.210000
573.661611, -0.582575, 0.281731, 1097.000000, 1102.500000, 2960.000000, 3180.000000, 0.210000
659.078130, -0.669342, 0.284868, 1097.000000, 1102.500000, 3200.000000, 3420.000000, 0.210000
749.836326, -0.761550, 0.287972, 1097.000000, 1102.500000, 3440.000000, 3660.000000, 0.210000
845.808137, -0.859070, 0.291044, 1097.000000, 1102.500000, 3680.000000, 3900.000000, 0.210000
946.867074, -0.961779, 0.294087, 1097.000000, 1102.500000, 3920.000000, 4140.000000, 0.210000
1052.889303, -1.069554, 0.297100, 1097.000000, 1102.500000, 4160.000000, 4380.000000, 0.210000
1163.754543, -1.182275, 0.300084, 1097.000000, 1102.500000, 4400.000000, 4620.000000, 0.210000
1279.346798, -1.299830, 0.303040, 1097.000000, 1102.500000, 4640.000000, 4860.000000, 0.210000
1399.554928, -1.422107, 0.305970, 1097.000000, 1102.500000, 4880.000000, 5100.000000, 0.210000
1524.273073, -1.549002, 0.308873, 1097.000000, 1102.500000, 5120.000000, 5340.000000, 0.210000
1653.400952, -1.680416, 0.311751, 1097.000000, 1102.500000, 5360.000000, 5580.000000, 0.210000
1786.844035, -1.816256, 0.314603, 1097.000000, 1102.500000, 5600.000000, 5820.000000, 0.210000
1924.513620, -1.956435, 0.317432, 1097.000000, 1102.500000, 5840.000000, 6060.000000, 0.210000
2066.326824, -2.100869, 0.320238, 1097.000000, 1102.500000, 6080.000000, 6300.000000, 0.210000
2212.206506, -2.249484, 0.323021, 1097.000000, 1102.500000, 6320.000000, 6540.000000, 0.210000
2362.081121, -2.402209, 0.325782, 1097.000000, 1102.500000, 6560.000000, 6780.000000, 0.210000
2515.884541, -2.558978, 0.328521, 1097.000000, 1102.500000, 6800.000000, 7020.000000, 0.210000
2673.555833, -2.719731, 0.331241, 1097.000000, 1102.500000, 7040.000000, 7260.000000, 0.210000
2835.039018, -2.884412, 0.333940, 1097.000000, 1102.500000, 7280.000000, 7500.000000, 0.210000
3000.282804, -3.052972, 0.336621, 1097.000000, 1102.500000, 7520.000000, 7740.000000, 0.210000
3169.240320, -3.225364, 0.339283, 1097.000000, 1102.500000, 7760.000000, 7980.000000, 0.210000
3341.868838, -3.401545, 0.341927, 1097.000000, 1102.500000, 8000.000000, 8220.000000, 0.210000
3518.129500, -3.581478, 0.344554, 1097.000000, 1102.500000, 8240.000000, 8460.000000, 0.210000
3690.389911, -3.757378, 0.347056, 1097.000000, 1102.500000, 8480.000000, 8680.000000, 0.210000
3858.256324, -3.928821, 0.349436, 1097.000000, 1102.500000, 8700.000000, 8900.000000, 0.210000
4029.096899, -4.103340, 0.351803, 1097.000000, 1102.500000, 8920.000000, 9120.000000, 0.210000
4202.891258, -4.280914, 0.354157, 1097.000000, 1102.500000, 9140.000000, 9340.000000, 0.210000
4379.620896, -4.461526, 0.356499, 1097.000000, 1102.500000, 9360.000000, 9560.000000, 0.210000
4559.269043, -4.645158, 0.358829, 1097.000000, 1102.500000, 9580.000000, 9780.000000, 0.210000
4741.820523, -4.831796, 0.361148, 1097.000000, 1102.500000, 9800.000000, 10000.000000, 0.210000
272.767626, -0.275823, 0.267344, 1103.000000, 1108.500000, 2000.000000, 2220.000000, 0.210000
332.090132, -0.335810, 0.270487, 1103.000000, 1108.500000, 2240.000000, 2460.000000, 0.210000
396.962838, -0.401410, 0.273590, 1103.000000, 1108.500000, 2480.000000, 2700.000000, 0.210000
467.285613, -0.472524, 0.276657, 1103.000000, 1108.500000, 2720.000000, 2940.000000, 0.210000
542.953457, -0.549049, 0.279691, 1103.000000, 1108.500000, 2960.000000, 3180.000000, 0.210000
623.857967, -0.630878, 0.282694, 1103.000000, 1108.500000, 3200.000000, 3420.000000, 0.210000
709.888682, -0.717901, 0.285666, 1103.000000, 1108.500000, 3440.000000, 3660.000000, 0.210000
800.934293, -0.810011, 0.288610, 1103.000000, 1108.500000, 3680.000000, 3900.000000, 0.210000
896.883726, -0.907098, 0.291527, 1103.000000, 1108.500000, 3920.000000, 4140.000000, 0.210000
997.627096, -1.009053, 0.294417, 1103.000000, 1108.500000, 4160.000000, 4380.000000, 0.210000
1103.056539, -1.115770, 0.297281, 1103.000000, 1108.500000, 4400.000000, 4620.000000, 0.210000
1213.066905, -1.227148, 0.300121, 1103.000000, 1108.500000, 4640.000000, 4860.000000, 0.210000
1327.556349, -1.343084, 0.302935, 1103.000000, 1108.500000, 4880.000000, 5100.000000, 0.210000
1446.426790, -1.463483, 0.305726, 1103.000000, 1108.500000, 5120.000000, 5340.000000, 0.210000
1569.584278, -1.588253, 0.308494, 1103.000000, 1108.500000, 5360.000000, 5580.000000, 0.210000
1696.939260, -1.717306, 0.311239, 1103.000000, 1108.500000, 5600.000000, 5820.000000, 0.210000
1828.406752, -1.850557, 0.313962, 1103.000000, 1108.500000, 5840.000000, 6060.000000, 0.210000
1963.906445, -1.987929, 0.316664, 1103.000000, 1108.500000, 6080.000000, 6300.000000, 0.210000
2103.362739, -2.129347, 0.319345, 1103.000000, 1108.500000, 6320.000000, 6540.000000, 0.210000
2246.704719, -2.274741, 0.322006, 1103.000000, 1108.500000, 6560.000000, 6780.000000, 0.210000
