Coefficients constant [W],Coefficients T [W/K],Coefficients j [W/(A/m^2)],T_start [K],T_end [K],j_start [A/m^2],j_end [A/m^2],Area [m^2],Temperature starts,Temperature ends,Current density starts,Current density ends
510.815373, -1.723725, 0.447841, 313.000000, 315.000000, 1000.000000, 1120.000000, 0.210000, 313.000000, 315.000000, 1000.000000, 1120.000000
577.556615, -1.956293, 0.453404, 313.000000, 315.000000, 1150.000000, 1240.000000, 0.210000, 315.500000, 317.000000, 1150.000000, 1240.000000
637.192966, -2.165629, 0.458262, 313.000000, 315.000000, 1270.000000, 1360.000000, 0.210000, 317.500000, 319.000000, 1270.000000, 1360.000000
697.059575, -2.377358, 0.463074, 313.000000, 315.000000, 1390.000000, 1480.000000, 0.210000, 319.500000, 321.000000, 1390.000000, 1480.000000
757.116900, -2.591459, 0.467870, 313.000000, 315.000000, 1510.000000, 1600.000000, 0.210000, 321.500000, 323.000000, 1510.000000, 1600.000000
817.317445, -2.807904, 0.472677, 313.000000, 315.000000, 1630.000000, 1720.000000, 0.210000, 323.500000, 325.000000, 1630.000000, 1720.000000
877.604074, -3.026660, 0.477519, 313.000000, 315.000000, 1750.000000, 1840.000000, 0.210000, 325.500000, 327.000000, 1750.000000, 1840.000000
937.907744, -3.247688, 0.482424, 313.000000, 315.000000, 1870.000000, 1960.000000, 0.210000, 327.500000, 329.000000, 1870.000000, 1960.000000
998.144469, -3.470942, 0.487419, 313.000000, 315.000000, 1990.000000, 2080.000000, 0.210000, 329.500000, 331.000000, 1990.000000, 2080.000000
1058.211204, -3.696365, 0.492534, 313.000000, 315.000000, 2110.000000, 2200.000000, 0.210000, 331.500000, 333.000000, 2110.000000, 2200.000000
1117.980203, -3.923891, 0.497803, 313.000000, 315.000000, 2230.000000, 2320.000000, 0.210000, 333.500000, 335.000000, 2230.000000, 2320.000000
1177.291152, -4.153440, 0.503270, 313.000000, 315.000000, 2350.000000, 2440.000000, 0.210000, 335.500000, 337.000000, 2350.000000, 2440.000000
1235.939995, -4.384916, 0.508986, 313.000000, 315.000000, 2470.000000, 2560.000000, 0.210000, 337.500000, 339.000000, 2470.000000, 2560.000000
1293.662709, -4.618201, 0.515016, 313.000000, 315.000000, 2590.000000, 2680.000000, 0.210000, 339.500000, 341.000000, 2590.000000, 2680.000000
1350.111111, -4.853150, 0.521443, 313.000000, 315.000000, 2710.000000, 2800.000000, 0.210000, 341.500000, 343.000000, 2710.000000, 2800.000000
1404.815737, -5.089583, 0.528381, 313.000000, 315.000000, 2830.000000, 2920.000000, 0.210000, 343.500000, 345.000000, 2830.000000, 2920.000000
1457.126855, -5.327267, 0.535985, 313.000000, 315.000000, 2950.000000, 3040.000000, 0.210000, 345.500000, 347.000000, 2950.000000, 3040.000000
1506.116837, -5.565903, 0.544474, 313.000000, 315.000000, 3070.000000, 3160.000000, 0.210000, 347.500000, 349.000000, 3070.000000, 3160.000000
1550.410531, -5.805085, 0.554174, 313.000000, 315.000000, 3190.000000, 3280.000000, 0.210000, 349.500000, 351.000000, 3190.000000, 3280.000000
1587.872442, -6.044253, 0.565591, 313.000000, 315.000000, 3310.000000, 3400.000000, 0.210000, 351.500000, 353.000000, 3310.000000, 3400.000000
1614.985474, -6.282598, 0.579560, 313.000000, 315.000000, 3430.000000, 3520.000000, 0.210000, 353.500000, 355.000000, 3430.000000, 3520.000000
1625.493281, -6.518879, 0.597564, 313.000000, 315.000000, 3550.000000, 3640.000000, 0.210000, 355.500000, 357.000000, 3550.000000, 3640.000000
1607.026090, -6.751041, 0.622542, 313.000000, 315.000000, 3670.000000, 3760.000000, 0.210000, 357.500000, 359.000000, 3670.000000, 3760.000000
1531.014773, -6.975271, 0.661287, 313.000000, 315.000000, 3790.000000, 3880.000000, 0.210000, 359.500000, 361.000000, 3790.000000, 3880.000000
1312.179025, -7.183041, 0.734110, 313.000000, 315.000000, 3910.000000, 4000.000000, 0.210000, 361.500000, 363.000000, 3910.000000, 4000.000000
507.810134, -1.701336, 0.444020, 315.500000, 317.000000, 1000.000000, 1120.000000, 0.210000
573.922136, -1.930084, 0.449534, 315.500000, 317.000000, 1150.000000, 1240.000000, 0.210000
632.950062, -2.135835, 0.454347, 315.500000, 317.000000, 1270.000000, 1360.000000, 0.210000
692.162831, -2.343803, 0.459116, 315.500000, 317.000000, 1390.000000, 1480.000000, 0.210000
751.520586, -2.553967, 0.463870, 315.500000, 317.000000, 1510.000000, 1600.000000, 0.210000
810.975463, -2.766299, 0.468635, 315.500000, 317.000000, 1630.000000, 1720.000000, 0.210000
870.469890, -2.980767, 0.473436, 315.500000, 317.000000, 1750.000000, 1840.000000, 0.210000
929.934310, -3.197331, 0.478301, 315.500000, 317.000000, 1870.000000, 1960.000000, 0.210000
989.284116, -3.415944, 0.483255, 315.500000, 317.000000, 1990.000000, 2080.000000, 0.210000
1048.415509, -3.636551, 0.488332, 315.500000, 317.000000, 2110.000000, 2200.000000, 0.210000
1107.199812, -3.859085, 0.493564, 315.500000, 317.000000, 2230.000000, 2320.000000, 0.210000
1165.475550, -4.083465, 0.498996, 315.500000, 317.000000, 2350.000000, 2440.000000, 0.210000
1223.037195, -4.309596, 0.504678, 315.500000, 317.000000, 2470.000000, 2560.000000, 0.210000
1279.618819, -4.537360, 0.510677, 315.500000, 317.000000, 2590.000000, 2680.000000, 0.210000
1334.869735, -4.766612, 0.517076, 315.500000, 317.000000, 2710.000000, 2800.000000, 0.210000
1388.317107, -4.997172, 0.523990, 315.500000, 317.000000, 2830.000000, 2920.000000, 0.210000
1439.306539, -5.228807, 0.531574, 315.500000, 317.000000, 2950.000000, 3040.000000, 0.210000
1486.903750, -5.461217, 0.540050, 315.500000, 317.000000, 3070.000000, 3160.000000, 0.210000
1529.723726, -5.693996, 0.549746, 315.500000, 317.000000, 3190.000000, 3280.000000, 0.210000
1565.615663, -5.926587, 0.561172, 315.500000, 317.000000, 3310.000000, 3400.000000, 0.210000
1591.037259, -6.158177, 0.575167, 315.500000, 317.000000, 3430.000000, 3520.000000, 0.210000
1599.687330, -6.387527, 0.593227, 315.500000, 317.000000, 3550.000000, 3640.000000, 0.210000
1579.107462, -6.612581, 0.618311, 315.500000, 317.000000, 3670.000000, 3760.000000, 0.210000
1500.523808, -6.829527, 0.657261, 315.500000, 317.000000, 3790.000000, 3880.000000, 0.210000
1278.044973, -7.029836, 0.730533, 315.500000, 317.000000, 3910.000000, 4000.000000, 0.210000
505.259906, -1.682121, 0.440675, 317.500000, 319.000000, 1000.000000, 1120.000000, 0.210000
570.843764, -1.907627, 0.446148, 317.500000, 319.000000, 1150.000000, 1240.000000, 0.210000
629.361666, -2.110341, 0.450926, 317.500000, 319.000000, 1270.000000, 1360.000000, 0.210000
688.026877, -2.315128, 0.455659, 317.500000, 319.000000, 1390.000000, 1480.000000, 0.210000
746.799258, -2.521966, 0.460378, 317.500000, 319.000000, 1510.000000, 1600.000000, 0.210000
805.630618, -2.730829, 0.465108, 317.500000, 319.000000, 1630.000000, 1720.000000, 0.210000
864.462999, -2.941683, 0.469875, 317.500000, 319.000000, 1750.000000, 1840.000000, 0.210000
923.226386, -3.154489, 0.474706, 317.500000, 319.000000, 1870.000000, 1960.000000, 0.210000
981.835621, -3.369200, 0.479628, 317.500000, 319.000000, 1990.000000, 2080.000000, 0.210000
1040.186232, -3.585760, 0.484673, 317.500000, 319.000000, 2110.000000, 2200.000000, 0.210000
1098.148719, -3.804102, 0.489875, 317.500000, 319.000000, 2230.000000, 2320.000000, 0.210000
1155.560572, -4.024146, 0.495278, 317.500000, 319.000000, 2350.000000, 2440.000000, 0.210000
1212.214955, -4.245796, 0.500934, 317.500000, 319.000000, 2470.000000, 2560.000000, 0.210000
1267.844247, -4.468935, 0.506907, 317.500000, 319.000000, 2590.000000, 2680.000000, 0.210000
1322.095536, -4.693418, 0.513284, 317.500000, 319.000000, 2710.000000, 2800.000000, 0.210000
1374.492988, -4.919063, 0.520179, 317.500000, 319.000000, 2830.000000, 2920.000000, 0.210000
1424.378061, -5.145639, 0.527749, 317.500000, 319.000000, 2950.000000, 3040.000000, 0.210000
1470.810559, -5.372845, 0.536216, 317.500000, 319.000000, 3070.000000, 3160.000000, 0.210000
1512.396703, -5.600277, 0.545912, 317.500000, 319.000000, 3190.000000, 3280.000000, 0.210000
1546.972083, -5.827374, 0.557348, 317.500000, 319.000000, 3310.000000, 3400.000000, 0.210000
1570.971988, -6.053327, 0.571369, 317.500000, 319.000000, 3430.000000, 3520.000000, 0.210000
1578.055380, -6.276894, 0.589481, 317.500000, 319.000000, 3550.000000, 3640.000000, 0.210000
1555.685055, -6.496021, 0.614662, 317.500000, 319.000000, 3670.000000, 3760.000000, 0.210000
1474.905189, -6.706895, 0.653797, 317.500000, 319.000000, 3790.000000, 3880.000000, 0.210000
1249.281198, -6.900988, 0.727470, 317.500000, 319.000000, 3910.000000, 4000.000000, 0.210000
502.812069, -1.663498, 0.437375, 319.500000, 321.000000, 1000.000000, 1120.000000, 0.210000
567.894119, -1.885895, 0.442810, 319.500000, 321.000000, 1150.000000, 1240.000000, 0.210000
625.928011, -2.085700, 0.447555, 319.500000, 321.000000, 1270.000000, 1360.000000, 0.210000
684.074069, -2.287444, 0.452255, 319.500000, 321.000000, 1390.000000, 1480.000000, 0.210000
742.291873, -2.491106, 0.456940, 319.500000, 321.000000, 1510.000000, 1600.000000, 0.210000
800.532903, -2.696657, 0.461638, 319.500000, 321.000000, 1630.000000, 1720.000000, 0.210000
858.738817, -2.904067, 0.466374, 319.500000, 321.000000, 1750.000000, 1840.000000, 0.210000
916.839141, -3.113293, 0.471174, 319.500000, 321.000000, 1870.000000, 1960.000000, 0.210000
974.748166, -3.324291, 0.476066, 319.500000, 321.000000, 1990.000000, 2080.000000, 0.210000
1032.360750, -3.537003, 0.481081, 319.500000, 321.000000, 2110.000000, 2200.000000, 0.210000
1089.546565, -3.751363, 0.486256, 319.500000, 321.000000, 2230.000000, 2320.000000, 0.210000
1146.142070, -3.967291, 0.491632, 319.500000, 321.000000, 2350.000000, 2440.000000, 0.210000
1201.939118, -4.184690, 0.497263, 319.500000, 321.000000, 2470.000000, 2560.000000, 0.210000
1256.668397, -4.403444, 0.503214, 319.500000, 321.000000, 2590.000000, 2680.000000, 0.210000
1309.974770, -4.623407, 0.509571, 319.500000, 321.000000, 2710.000000, 2800.000000, 0.210000
1361.379405, -4.844398, 0.516450, 319.500000, 321.000000, 2830.000000, 2920.000000, 0.210000
1410.219613, -5.066185, 0.524007, 319.500000, 321.000000, 2950.000000, 3040.000000, 0.210000
1455.549284, -5.288468, 0.532468, 319.500000, 321.000000, 3070.000000, 3160.000000, 0.210000
1495.965874, -5.510842, 0.542165, 319.500000, 321.000000, 3190.000000, 3280.000000, 0.210000
1529.291365, -5.732747, 0.553613, 319.500000, 321.000000, 3310.000000, 3400.000000, 0.210000
1551.938640, -5.953373, 0.567664, 319.500000, 321.000000, 3430.000000, 3520.000000, 0.210000
1557.526807, -6.171478, 0.585831, 319.500000, 321.000000, 3550.000000, 3640.000000, 0.210000
1533.439868, -6.385009, 0.611110, 319.500000, 321.000000, 3670.000000, 3760.000000, 0.210000
1450.540026, -6.590153, 0.650432, 319.500000, 321.000000, 3790.000000, 3880.000000, 0.210000
1221.849507, -6.778380, 0.724509, 319.500000, 321.000000, 3910.000000, 4000.000000, 0.210000
500.458642, -1.645431, 0.434120, 321.500000, 323.000000, 1000.000000, 1120.000000, 0.210000
565.063078, -1.864840, 0.439519, 321.500000, 323.000000, 1150.000000, 1240.000000, 0.210000
622.636845, -2.061855, 0.444232, 321.500000, 323.000000, 1270.000000, 1360.000000, 0.210000
680.289824, -2.260684, 0.448901, 321.500000, 323.000000, 1390.000000, 1480.000000, 0.210000
737.981311, -2.461306, 0.453556, 321.500000, 323.000000, 1510.000000, 1600.000000, 0.210000
795.662462, -2.663693, 0.458224, 321.500000, 323.000000, 1630.000000, 1720.000000, 0.210000
853.274548, -2.867813, 0.462930, 321.500000, 323.000000, 1750.000000, 1840.000000, 0.210000
910.746636, -3.073626, 0.467701, 321.500000, 323.000000, 1870.000000, 1960.000000, 0.210000
967.992466, -3.281084, 0.472565, 321.500000, 323.000000, 1990.000000, 2080.000000, 0.210000
1024.906227, -3.490132, 0.477554, 321.500000, 323.000000, 2110.000000, 2200.000000, 0.210000
1081.356763, -3.700702, 0.482702, 321.500000, 323.000000, 2230.000000, 2320.000000, 0.210000
1137.179501, -3.912716, 0.488054, 321.500000, 323.000000, 2350.000000, 2440.000000, 0.210000
1192.164984, -4.126076, 0.493662, 321.500000, 323.000000, 2470.000000, 2560.000000, 0.210000
1246.042209, -4.340665, 0.499593, 321.500000, 323.000000, 2590.000000, 2680.000000, 0.210000
1298.453813, -4.556338, 0.505932, 321.500000, 323.000000, 2710.000000, 2800.000000, 0.210000
1348.917965, -4.772913, 0.512797, 321.500000, 323.000000, 2830.000000, 2920.000000, 0.210000
1396.767832, -4.990161, 0.520344, 321.500000, 323.000000, 2950.000000, 3040.000000, 0.210000
1441.051389, -5.207778, 0.528801, 321.500000, 323.000000, 3070.000000, 3160.000000, 0.210000
1480.357326, -5.425361, 0.538501, 321.500000, 323.000000, 3190.000000, 3280.000000, 0.210000
1512.494019, -5.642349, 0.549964, 321.500000, 323.000000, 3310.000000, 3400.000000, 0.210000
1533.851943, -5.857934, 0.564046, 321.500000, 323.000000, 3430.000000, 3520.000000, 0.210000
1538.010352, -6.070872, 0.582269, 321.500000, 323.000000, 3550.000000, 3640.000000, 0.210000
1512.274454, -6.279111, 0.607650, 321.500000, 323.000000, 3670.000000, 3760.000000, 0.210000
1427.324482, -6.478838, 0.647161, 321.500000, 323.000000, 3790.000000, 3880.000000, 0.210000
1195.639469, -6.661522, 0.721645, 321.500000, 323.000000, 3910.000000, 4000.000000, 0.210000
498.192445, -1.627884, 0.430907, 323.500000, 325.000000, 1000.000000, 1120.000000, 0.210000
562.341528, -1.844419, 0.436273, 323.500000, 325.000000, 1150.000000, 1240.000000, 0.210000
619.477141, -2.038754, 0.440957, 323.500000, 325.000000, 1270.000000, 1360.000000, 0.210000
676.661016, -2.234786, 0.445597, 323.500000, 325.000000, 1390.000000, 1480.000000, 0.210000
733.852170, -2.432495, 0.450223, 323.500000, 325.000000, 1510.000000, 1600.000000, 0.210000
791.001430, -2.631854, 0.454862, 323.500000, 325.000000, 1630.000000, 1720.000000, 0.210000
848.049681, -2.832828, 0.459540, 323.500000, 325.000000, 1750.000000, 1840.000000, 0.210000
904.925533, -3.035378, 0.464285, 323.500000, 325.000000, 1870.000000, 1960.000000, 0.210000
961.542175, -3.239458, 0.469123, 323.500000, 325.000000, 1990.000000, 2080.000000, 0.210000
1017.793124, -3.445011, 0.474086, 323.500000, 325.000000, 2110.000000, 2200.000000, 0.210000
1073.546399, -3.651970, 0.479211, 323.500000, 325.000000, 2230.000000, 2320.000000, 0.210000
1128.636393, -3.860255, 0.484541, 323.500000, 325.000000, 2350.000000, 2440.000000, 0.210000
1182.852340, -4.069770, 0.490128, 323.500000, 325.000000, 2470.000000, 2560.000000, 0.210000
1235.921547, -4.280398, 0.496040, 323.500000, 325.000000, 2590.000000, 2680.000000, 0.210000
1287.484423, -4.491993, 0.502364, 323.500000, 325.000000, 2710.000000, 2800.000000, 0.210000
1337.056140, -4.704373, 0.509216, 323.500000, 325.000000, 2830.000000, 2920.000000, 0.210000
1383.965720, -4.917309, 0.516756, 323.500000, 325.000000, 2950.000000, 3040.000000, 0.210000
1427.255222, -5.130497, 0.525210, 323.500000, 325.000000, 3070.000000, 3160.000000, 0.210000
1465.504572, -5.343535, 0.534916, 323.500000, 325.000000, 3190.000000, 3280.000000, 0.210000
1496.508539, -5.555862, 0.546396, 323.500000, 325.000000, 3310.000000, 3400.000000, 0.210000
1516.635189, -5.766667, 0.560511, 323.500000, 325.000000, 3430.000000, 3520.000000, 0.210000
1519.423923, -5.974710, 0.578793, 323.500000, 325.000000, 3550.000000, 3640.000000, 0.210000
1492.101158, -6.177936, 0.604277, 323.500000, 325.000000, 3670.000000, 3760.000000, 0.210000
1405.165151, -6.372533, 0.643979, 323.500000, 325.000000, 3790.000000, 3880.000000, 0.210000
1170.551745, -6.549971, 0.718871, 323.500000, 325.000000, 3910.000000, 4000.000000, 0.210000
496.007001, -1.610826, 0.427735, 325.500000, 327.000000, 1000.000000, 1120.000000, 0.210000
559.721253, -1.824593, 0.433070, 325.500000, 327.000000, 1150.000000, 1240.000000, 0.210000
616.438956, -2.016349, 0.437726, 325.500000, 327.000000, 1270.000000, 1360.000000, 0.210000
673.175815, -2.209695, 0.442338, 325.500000, 327.000000, 1390.000000, 1480.000000, 0.210000
729.890564, -2.404609, 0.446938, 325.500000, 327.000000, 1510.000000, 1600.000000, 0.210000
786.533701, -2.601063, 0.451550, 325.500000, 327.000000, 1630.000000, 1720.000000, 0.210000
843.045728, -2.799025, 0.456203, 325.500000, 327.000000, 1750.000000, 1840.000000, 0.210000
899.354796, -2.998455, 0.460923, 325.500000, 327.000000, 1870.000000, 1960.000000, 0.210000
955.373542, -3.199305, 0.465737, 325.500000, 327.000000, 1990.000000, 2080.000000, 0.210000
1010.994813, -3.401519, 0.470677, 325.500000, 327.000000, 2110.000000, 2200.000000, 0.210000
1066.085802, -3.605031, 0.475780, 325.500000, 327.000000, 2230.000000, 2320.000000, 0.210000
1120.479871, -3.809760, 0.481089, 325.500000, 327.000000, 2350.000000, 2440.000000, 0.210000
1173.964940, -4.015610, 0.486658, 325.500000, 327.000000, 2470.000000, 2560.000000, 0.210000
1226.266629, -4.222463, 0.492554, 325.500000, 327.000000, 2590.000000, 2680.000000, 0.210000
1277.023119, -4.430175, 0.498864, 325.500000, 327.000000, 2710.000000, 2800.000000, 0.210000
1325.746585, -4.638564, 0.505705, 325.500000, 327.000000, 2830.000000, 2920.000000, 0.210000
1371.761902, -4.847399, 0.513239, 325.500000, 327.000000, 2950.000000, 3040.000000, 0.210000
1414.105217, -5.056377, 0.521693, 325.500000, 327.000000, 3070.000000, 3160.000000, 0.210000
1451.347688, -5.265096, 0.531406, 325.500000, 327.000000, 3190.000000, 3280.000000, 0.210000
1481.270477, -5.472995, 0.542905, 325.500000, 327.000000, 3310.000000, 3400.000000, 0.210000
1500.219245, -5.679263, 0.557054, 325.500000, 327.000000, 3430.000000, 3520.000000, 0.210000
1501.693538, -5.882660, 0.575397, 325.500000, 327.000000, 3550.000000, 3640.000000, 0.210000
1472.840979, -6.081131, 0.600986, 325.500000, 327.000000, 3670.000000, 3760.000000, 0.210000
1383.977853, -6.270864, 0.640881, 325.500000, 327.000000, 3790.000000, 3880.000000, 0.210000
1146.496812, -6.443329, 0.716183, 325.500000, 327.000000, 3910.000000, 4000.000000, 0.210000
493.896460, -1.594229, 0.424602, 327.500000, 329.000000, 1000.000000, 1120.000000, 0.210000
557.194831, -1.805325, 0.429907, 327.500000, 329.000000, 1150.000000, 1240.000000, 0.210000
613.513312, -1.994598, 0.434537, 327.500000, 329.000000, 1270.000000, 1360.000000, 0.210000
669.823534, -2.185360, 0.439125, 327.500000, 329.000000, 1390.000000, 1480.000000, 0.210000
726.083950, -2.377588, 0.443699, 327.500000, 329.000000, 1510.000000, 1600.000000, 0.210000
782.244729, -2.571255, 0.448287, 327.500000, 329.000000, 1630.000000, 1720.000000, 0.210000
838.245990, -2.766328, 0.452916, 327.500000, 329.000000, 1750.000000, 1840.000000, 0.210000
894.015425, -2.962767, 0.457612, 327.500000, 329.000000, 1870.000000, 1960.000000, 0.210000
949.465120, -3.160525, 0.462404, 327.500000, 329.000000, 1990.000000, 2080.000000, 0.210000
1004.487251, -3.359546, 0.467323, 327.500000, 329.000000, 2110.000000, 2200.000000, 0.210000
1058.948184, -3.559762, 0.472406, 327.500000, 329.000000, 2230.000000, 2320.000000, 0.210000
1112.680249, -3.761094, 0.477696, 327.500000, 329.000000, 2350.000000, 2440.000000, 0.210000
1165.470058, -3.963445, 0.483248, 327.500000, 329.000000, 2470.000000, 2560.000000, 0.210000
1217.041537, -4.166698, 0.489129, 327.500000, 329.000000, 2590.000000, 2680.000000, 0.210000
1267.030643, -4.370707, 0.495427, 327.500000, 329.000000, 2710.000000, 2800.000000, 0.210000
1314.946552, -4.575292, 0.502260, 327.500000, 329.000000, 2830.000000, 2920.000000, 0.210000
1360.109995, -4.780221, 0.509789, 327.500000, 329.000000, 2950.000000, 3040.000000, 0.210000
1401.551202, -4.985191, 0.518245, 327.500000, 329.000000, 3070.000000, 3160.000000, 0.210000
1437.832568, -5.189800, 0.527967, 327.500000, 329.000000, 3190.000000, 3280.000000, 0.210000
1466.721647, -5.393487, 0.539486, 327.500000, 329.000000, 3310.000000, 3400.000000, 0.210000
1484.541693, -5.595442, 0.553672, 327.500000, 329.000000, 3430.000000, 3520.000000, 0.210000
1484.752398, -5.794424, 0.572078, 327.500000, 329.000000, 3550.000000, 3640.000000, 0.210000
1454.422591, -5.988377, 0.597774, 327.500000, 329.000000, 3670.000000, 3760.000000, 0.210000
1363.686586, -6.173490, 0.637863, 327.500000, 329.000000, 3790.000000, 3880.000000, 0.210000
1123.393843, -6.341234, 0.713577, 327.500000, 329.000000, 3910.000000, 4000.000000, 0.210000
