Coefficients constant [W],Coefficients T [W/K],Coefficients j [W/(A/m^2)],T_start [K],T_end [K],j_start [A/m^2],j_end [A/m^2],Area [m^2],Temperature starts,Temperature ends,Current density starts,Current density ends
374.402663, -0.386386, 0.276213, 1073.000000, 1081.500000, 2000.000000, 2340.000000, 0.210000, 1073.000000, 1081.500000, 2000.000000, 2340.000000
496.247827, -0.512198, 0.282038, 1073.000000, 1081.500000, 2360.000000, 2700.000000, 0.210000, 1082.000000, 1090.500000, 2360.000000, 2700.000000
633.404360, -0.653855, 0.287738, 1073.000000, 1081.500000, 2720.000000, 3060.000000, 0.210000, 1091.000000, 1099.500000, 2720.000000, 3060.000000
785.130126, -0.810610, 0.293322, 1073.000000, 1081.500000, 3080.000000, 3420.000000, 0.210000, 1100.000000, 1108.500000, 3080.000000, 3420.000000
950.713280, -0.981747, 0.298796, 1073.000000, 1081.500000, 3440.000000, 3780.000000, 0.210000, 1109.000000, 1117.500000, 3440.000000, 3780.000000
1129.490766, -1.166597, 0.304167, 1073.000000, 1081.500000, 3800.000000, 4140.000000, 0.210000, 1118.000000, 1126.500000, 3800.000000, 4140.000000
1320.859783, -1.364554, 0.309439, 1073.000000, 1081.500000, 4160.000000, 4500.000000, 0.210000, 1127.000000, 1135.500000, 4160.000000, 4500.000000
1524.283355, -1.575076, 0.314620, 1073.000000, 1081.500000, 4520.000000, 4860.000000, 0.210000, 1136.000000, 1144.500000, 4520.000000, 4860.000000
1739.291346, -1.797690, 0.319713, 1073.000000, 1081.500000, 4880.000000, 5220.000000, 0.210000, 1145.000000, 1153.500000, 4880.000000, 5220.000000
1965.478205, -2.031988, 0.324725, 1073.000000, 1081.500000, 5240.000000, 5580.000000, 0.210000, 1154.000000, 1162.500000, 5240.000000, 5580.000000
2195.708480, -2.270598, 0.329525, 1073.000000, 1081.500000, 5600.000000, 5920.000000, 0.210000, 1163.000000, 1171.000000, 5600.000000, 5920.000000
2428.973588, -2.512442, 0.334122, 1073.000000, 1081.500000, 5940.000000, 6260.000000, 0.210000, 1171.500000, 1179.500000, 5940.000000, 6260.000000
2671.442365, -2.763934, 0.338660, 1073.000000, 1081.500000, 6280.000000, 6600.000000, 0.210000, 1180.000000, 1188.000000, 6280.000000, 6600.000000
2922.942661, -3.024900, 0.343142, 1073.000000, 1081.500000, 6620.000000, 6940.000000, 0.210000, 1188.500000, 1196.500000, 6620.000000, 6940.000000
3183.331888, -3.295195, 0.347572, 1073.000000, 1081.500000, 6960.000000, 7280.000000, 0.210000, 1197.000000, 1205.000000, 6960.000000, 7280.000000
3452.492875, -3.574702, 0.351953, 1073.000000, 1081.500000, 7300.000000, 7620.000000, 0.210000, 1205.500000, 1213.500000, 7300.000000, 7620.000000
3730.330112, -3.863324, 0.356289, 1073.000000, 1081.500000, 7640.000000, 7960.000000, 0.210000, 1214.000000, 1222.000000, 7640.000000, 7960.000000
4016.766418, -4.160983, 0.360582, 1073.000000, 1081.500000, 7980.000000, 8300.000000, 0.210000, 1222.500000, 1230.500000, 7980.000000, 8300.000000
4311.740013, -4.467617, 0.364836, 1073.000000, 1081.500000, 8320.000000, 8640.000000, 0.210000, 1231.000000, 1239.000000, 8320.000000, 8640.000000
4615.201990, -4.783176, 0.369053, 1073.000000, 1081.500000, 8660.000000, 8980.000000, 0.210000, 1239.500000, 1247.500000, 8660.000000, 8980.000000
4927.114147, -5.107622, 0.373235, 1073.000000, 1081.500000, 9000.000000, 9320.000000, 0.210000, 1248.000000, 1256.000000, 9000.000000, 9320.000000
5247.447137, -5.440926, 0.377385, 1073.000000, 1081.500000, 9340.000000, 9660.000000, 0.210000, 1256.500000, 1264.500000, 9340.000000, 9660.000000
5576.178901, -5.783064, 0.381505, 1073.000000, 1081.500000, 9680.000000, 10000.000000, 0.210000, 1265.000000, 1273.000000, 9680.000000, 10000.000000
343.889610, -0.352540, 0.273404, 1082.000000, 1090.500000, 2000.000000, 2340.000000, 0.210000
455.850870, -0.467365, 0.278838, 1082.000000, 1090.500000, 2360.000000, 2700.000000, 0.210000
582.179014, -0.596947, 0.284163, 1082.000000, 1090.500000, 2720.000000, 3060.000000, 0.210000
722.274877, -0.740688, 0.289390, 1082.000000, 1090.500000, 3080.000000, 3420.000000, 0.210000
875.545642, -0.897994, 0.294522, 1082.000000, 1090.500000, 3440.000000, 3780.000000, 0.210000
1041.421188, -1.068296, 0.299566, 1082.000000, 1090.500000, 3800.000000, 4140.000000, 0.210000
1219.365941, -1.251059, 0.304526, 1082.000000, 1090.500000, 4160.000000, 4500.000000, 0.210000
1408.886631, -1.445790, 0.309406, 1082.000000, 1090.500000, 4520.000000, 4860.000000, 0.210000
1609.536553, -1.652043, 0.314210, 1082.000000, 1090.500000, 4880.000000, 5220.000000, 0.210000
1820.917007, -1.869419, 0.318941, 1082.000000, 1090.500000, 5240.000000, 5580.000000, 0.210000
2036.319585, -2.091039, 0.323476, 1082.000000, 1090.500000, 5600.000000, 5920.000000, 0.210000
2254.753296, -2.315857, 0.327823, 1082.000000, 1090.500000, 5940.000000, 6260.000000, 0.210000
2481.953749, -2.549791, 0.332115, 1082.000000, 1090.500000, 6280.000000, 6600.000000, 0.210000
2717.727032, -2.792649, 0.336356, 1082.000000, 1090.500000, 6620.000000, 6940.000000, 0.210000
2961.906881, -3.044264, 0.340548, 1082.000000, 1090.500000, 6960.000000, 7280.000000, 0.210000
3214.351693, -3.304495, 0.344695, 1082.000000, 1090.500000, 7300.000000, 7620.000000, 0.210000
3474.941631, -3.573221, 0.348800, 1082.000000, 1090.500000, 7640.000000, 7960.000000, 0.210000
3743.575906, -3.850342, 0.352863, 1082.000000, 1090.500000, 7980.000000, 8300.000000, 0.210000
4020.170279, -4.135773, 0.356889, 1082.000000, 1090.500000, 8320.000000, 8640.000000, 0.210000
4304.654793, -4.429445, 0.360880, 1082.000000, 1090.500000, 8660.000000, 8980.000000, 0.210000
4596.971753, -4.731301, 0.364837, 1082.000000, 1090.500000, 9000.000000, 9320.000000, 0.210000
4897.073939, -5.041292, 0.368763, 1082.000000, 1090.500000, 9340.000000, 9660.000000, 0.210000
5204.923034, -5.359381, 0.372659, 1082.000000, 1090.500000, 9680.000000, 10000.000000, 0.210000
316.300083, -0.322148, 0.270842, 1091.000000, 1099.500000, 2000.000000, 2340.000000, 0.210000
419.147867, -0.426932, 0.275914, 1091.000000, 1099.500000, 2360.000000, 2700.000000, 0.210000
535.410127, -0.545396, 0.280891, 1091.000000, 1099.500000, 2720.000000, 3060.000000, 0.210000
664.612651, -0.677069, 0.285782, 1091.000000, 1099.500000, 3080.000000, 3420.000000, 0.210000
806.273540, -0.821474, 0.290592, 1091.000000, 1099.500000, 3440.000000, 3780.000000, 0.210000
959.916448, -0.978138, 0.295327, 1091.000000, 1099.500000, 3800.000000, 4140.000000, 0.210000
1125.081089, -1.146604, 0.299990, 1091.000000, 1099.500000, 4160.000000, 4500.000000, 0.210000
1301.331132, -1.326440, 0.304583, 1091.000000, 1099.500000, 4520.000000, 4860.000000, 0.210000
1488.259680, -1.517242, 0.309111, 1091.000000, 1099.500000, 4880.000000, 5220.000000, 0.210000
1685.492616, -1.718640, 0.313575, 1091.000000, 1099.500000, 5240.000000, 5580.000000, 0.210000
1886.745854, -1.924237, 0.317858, 1091.000000, 1099.500000, 5600.000000, 5920.000000, 0.210000
2091.057949, -2.133025, 0.321967, 1091.000000, 1099.500000, 5940.000000, 6260.000000, 0.210000
2303.762464, -2.350471, 0.326027, 1091.000000, 1099.500000, 6280.000000, 6600.000000, 0.210000
2524.654686, -2.576374, 0.330040, 1091.000000, 1099.500000, 6620.000000, 6940.000000, 0.210000
2753.553897, -2.810553, 0.334009, 1091.000000, 1099.500000, 6960.000000, 7280.000000, 0.210000
2990.301548, -3.052852, 0.337937, 1091.000000, 1099.500000, 7300.000000, 7620.000000, 0.210000
3234.759346, -3.303133, 0.341825, 1091.000000, 1099.500000, 7640.000000, 7960.000000, 0.210000
3486.807307, -3.561278, 0.345675, 1091.000000, 1099.500000, 7980.000000, 8300.000000, 0.210000
3746.341860, -3.827184, 0.349489, 1091.000000, 1099.500000, 8320.000000, 8640.000000, 0.210000
4013.274040, -4.100763, 0.353270, 1091.000000, 1099.500000, 8660.000000, 8980.000000, 0.210000
4287.527792, -4.381939, 0.357020, 1091.000000, 1099.500000, 9000.000000, 9320.000000, 0.210000
4569.038416, -4.670649, 0.360739, 1091.000000, 1099.500000, 9340.000000, 9660.000000, 0.210000
4857.751141, -4.966838, 0.364429, 1091.000000, 1099.500000, 9680.000000, 10000.000000, 0.210000
291.388637, -0.294885, 0.268506, 1100.000000, 1108.500000, 2000.000000, 2340.000000, 0.210000
385.871617, -0.390529, 0.273244, 1100.000000, 1108.500000, 2360.000000, 2700.000000, 0.210000
492.828197, -0.498806, 0.277897, 1100.000000, 1108.500000, 2720.000000, 3060.000000, 0.210000
611.889133, -0.619352, 0.282475, 1100.000000, 1108.500000, 3080.000000, 3420.000000, 0.210000
742.670341, -0.751788, 0.286983, 1100.000000, 1108.500000, 3440.000000, 3780.000000, 0.210000
884.783059, -0.895732, 0.291426, 1100.000000, 1108.500000, 3800.000000, 4140.000000, 0.210000
1037.842400, -1.050805, 0.295807, 1100.000000, 1108.500000, 4160.000000, 4500.000000, 0.210000
1201.474323, -1.216638, 0.300129, 1100.000000, 1108.500000, 4520.000000, 4860.000000, 0.210000
1375.321045, -1.392880, 0.304393, 1100.000000, 1108.500000, 4880.000000, 5220.000000, 0.210000
1559.045018, -1.579199, 0.308604, 1100.000000, 1108.500000, 5240.000000, 5580.000000, 0.210000
1746.781393, -1.769667, 0.312647, 1100.000000, 1108.500000, 5600.000000, 5920.000000, 0.210000
1937.609774, -1.963325, 0.316529, 1100.000000, 1108.500000, 5940.000000, 6260.000000, 0.210000
2136.490919, -2.165228, 0.320368, 1100.000000, 1108.500000, 6280.000000, 6600.000000, 0.210000
2343.220123, -2.375171, 0.324166, 1100.000000, 1108.500000, 6620.000000, 6940.000000, 0.210000
2557.612038, -2.592975, 0.327924, 1100.000000, 1108.500000, 6960.000000, 7280.000000, 0.210000
2779.499856, -2.818474, 0.331644, 1100.000000, 1108.500000, 7300.000000, 7620.000000, 0.210000
3008.734293, -3.051522, 0.335328, 1100.000000, 1108.500000, 7640.000000, 7960.000000, 0.210000
3245.182417, -3.291988, 0.338978, 1100.000000, 1108.500000, 7980.000000, 8300.000000, 0.210000
3488.726411, -3.539756, 0.342594, 1100.000000, 1108.500000, 8320.000000, 8640.000000, 0.210000
3739.262311, -3.794725, 0.346180, 1100.000000, 1108.500000, 8660.000000, 8980.000000, 0.210000
3996.698745, -4.056804, 0.349735, 1100.000000, 1108.500000, 9000.000000, 9320.000000, 0.210000
4260.955723, -4.325916, 0.353263, 1100.000000, 1108.500000, 9340.000000, 9660.000000, 0.210000
4531.963482, -4.601992, 0.356763, 1100.000000, 1108.500000, 9680.000000, 10000.000000, 0.210000
268.914338, -0.270440, 0.266374, 1109.000000, 1117.500000, 2000.000000, 2340.000000, 0.210000
355.747132, -0.357792, 0.270805, 1109.000000, 1117.500000, 2360.000000, 2700.000000, 0.210000
454.139930, -0.456773, 0.275159, 1109.000000, 1117.500000, 2720.000000, 3060.000000, 0.210000
563.809141, -0.567105, 0.279445, 1109.000000, 1117.500000, 3080.000000, 3420.000000, 0.210000
684.453552, -0.688494, 0.283671, 1109.000000, 1117.500000, 3440.000000, 3780.000000, 0.210000
815.761906, -0.820637, 0.287840, 1109.000000, 1117.500000, 3800.000000, 4140.000000, 0.210000
957.419511, -0.963225, 0.291955, 1109.000000, 1117.500000, 4160.000000, 4500.000000, 0.210000
1109.113910, -1.115953, 0.296020, 1109.000000, 1117.500000, 4520.000000, 4860.000000, 0.210000
1270.539602, -1.278523, 0.300036, 1109.000000, 1117.500000, 4880.000000, 5220.000000, 0.210000
1441.401846, -1.450647, 0.304004, 1109.000000, 1117.500000, 5240.000000, 5580.000000, 0.210000
1616.245625, -1.626848, 0.307819, 1109.000000, 1117.500000, 5600.000000, 5920.000000, 0.210000
1794.200810, -1.806229, 0.311486, 1109.000000, 1117.500000, 5940.000000, 6260.000000, 0.210000
1979.882219, -1.993458, 0.315114, 1109.000000, 1117.500000, 6280.000000, 6600.000000, 0.210000
2173.094327, -2.188344, 0.318707, 1109.000000, 1117.500000, 6620.000000, 6940.000000, 0.210000
2373.656122, -2.390710, 0.322264, 1109.000000, 1117.500000, 6960.000000, 7280.000000, 0.210000
2581.401036, -2.600395, 0.325788, 1109.000000, 1117.500000, 7300.000000, 7620.000000, 0.210000
2796.176619, -2.817248, 0.329279, 1109.000000, 1117.500000, 7640.000000, 7960.000000, 0.210000
3017.844040, -3.041136, 0.332739, 1109.000000, 1117.500000, 7980.000000, 8300.000000, 0.210000
3246.277437, -3.271936, 0.336169, 1109.000000, 1117.500000, 8320.000000, 8640.000000, 0.210000
3481.363183, -3.509536, 0.339571, 1109.000000, 1117.500000, 8660.000000, 8980.000000, 0.210000
3722.999089, -3.753838, 0.342945, 1109.000000, 1117.500000, 9000.000000, 9320.000000, 0.210000
3971.093578, -4.004752, 0.346293, 1109.000000, 1117.500000, 9340.000000, 9660.000000, 0.210000
4225.564856, -4.262199, 0.349616, 1109.000000, 1117.500000, 9680.000000, 10000.000000, 0.210000
248.646843, -0.248526, 0.264426, 1118.000000, 1126.500000, 2000.000000, 2340.000000, 0.210000
328.501862, -0.328369, 0.268576, 1118.000000, 1126.500000, 2360.000000, 2700.000000, 0.210000
419.042146, -0.418893, 0.272654, 1118.000000, 1126.500000, 2720.000000, 3060.000000, 0.210000
520.052499, -0.519888, 0.276671, 1118.000000, 1126.500000, 3080.000000, 3420.000000, 0.210000
631.299874, -0.631127, 0.280633, 1118.000000, 1126.500000, 3440.000000, 3780.000000, 0.210000
752.538959, -0.752373, 0.284546, 1118.000000, 1126.500000, 3800.000000, 4140.000000, 0.210000
883.517139, -0.883380, 0.288413, 1118.000000, 1126.500000, 4160.000000, 4500.000000, 0.210000
1023.978876, -1.023901, 0.292235, 1118.000000, 1126.500000, 4520.000000, 4860.000000, 0.210000
1173.669544, -1.173689, 0.296015, 1118.000000, 1126.500000, 4880.000000, 5220.000000, 0.210000
1332.338683, -1.332501, 0.299755, 1118.000000, 1126.500000, 5240.000000, 5580.000000, 0.210000
1494.926930, -1.495290, 0.303353, 1118.000000, 1126.500000, 5600.000000, 5920.000000, 0.210000
1660.620524, -1.661223, 0.306815, 1118.000000, 1126.500000, 5940.000000, 6260.000000, 0.210000
1833.712689, -1.834614, 0.310243, 1118.000000, 1126.500000, 6280.000000, 6600.000000, 0.210000
2014.023770, -2.015290, 0.313640, 1118.000000, 1126.500000, 6620.000000, 6940.000000, 0.210000
2201.384180, -2.203087, 0.317006, 1118.000000, 1126.500000, 6960.000000, 7280.000000, 0.210000
2395.634778, -2.397851, 0.320343, 1118.000000, 1126.500000, 7300.000000, 7620.000000, 0.210000
2596.627026, -2.599438, 0.323651, 1118.000000, 1126.500000, 7640.000000, 7960.000000, 0.210000
2804.222960, -2.807714, 0.326931, 1118.000000, 1126.500000, 7980.000000, 8300.000000, 0.210000
3018.295009, -3.022557, 0.330184, 1118.000000, 1126.500000, 8320.000000, 8640.000000, 0.210000
3238.725693, -3.243852, 0.333412, 1118.000000, 1126.500000, 8660.000000, 8980.000000, 0.210000
3465.407231, -3.471497, 0.336615, 1118.000000, 1126.500000, 9000.000000, 9320.000000, 0.210000
3698.241084, -3.705395, 0.339794, 1118.000000, 1126.500000, 9340.000000, 9660.000000, 0.210000
3937.137446, -3.945460, 0.342950, 1118.000000, 1126.500000, 9680.000000, 10000.000000, 0.210000
230.370174, -0.228874, 0.262645, 1127.000000, 1135.500000, 2000.000000, 2340.000000, 0.210000
303.873042, -0.301932, 0.266537, 1127.000000, 1135.500000, 2360.000000, 2700.000000, 0.210000
387.232952, -0.384781, 0.270361, 1127.000000, 1135.500000, 2720.000000, 3060.000000, 0.210000
480.288465, -0.477265, 0.274129, 1127.000000, 1135.500000, 3080.000000, 3420.000000, 0.210000
582.861386, -0.579212, 0.277849, 1127.000000, 1135.500000, 3440.000000, 3780.000000, 0.210000
694.760905, -0.690439, 0.281523, 1127.000000, 1135.500000, 3800.000000, 4140.000000, 0.210000
815.787273, -0.810753, 0.285157, 1127.000000, 1135.500000, 4160.000000, 4500.000000, 0.210000
945.735104, -0.939956, 0.288752, 1127.000000, 1135.500000, 4520.000000, 4860.000000, 0.210000
1084.396338, -1.077848, 0.292310, 1127.000000, 1135.500000, 4880.000000, 5220.000000, 0.210000
1231.562859, -1.224229, 0.295834, 1127.000000, 1135.500000, 5240.000000, 5580.000000, 0.210000
1382.552628, -1.374458, 0.299227, 1127.000000, 1135.500000, 5600.000000, 5920.000000, 0.210000
1536.611186, -1.527766, 0.302494, 1127.000000, 1135.500000, 5940.000000, 6260.000000, 0.210000
1697.732188, -1.688142, 0.305732, 1127.000000, 1135.500000, 6280.000000, 6600.000000, 0.210000
1865.755855, -1.855433, 0.308944, 1127.000000, 1135.500000, 6620.000000, 6940.000000, 0.210000
2040.528774, -2.029492, 0.312128, 1127.000000, 1135.500000, 6960.000000, 7280.000000, 0.210000
2221.904492, -2.210178, 0.315286, 1127.000000, 1135.500000, 7300.000000, 7620.000000, 0.210000
2409.743933, -2.397358, 0.318420, 1127.000000, 1135.500000, 7640.000000, 7960.000000, 0.210000
2603.915661, -2.590904, 0.321529, 1127.000000, 1135.500000, 7980.000000, 8300.000000, 0.210000
2804.296007, -2.790700, 0.324614, 1127.000000, 1135.500000, 8320.000000, 8640.000000, 0.210000
3010.769077, -2.996634, 0.327677, 1127.000000, 1135.500000, 8660.000000, 8980.000000, 0.210000
3223.226672, -3.208602, 0.330717, 1127.000000, 1135.500000, 9000.000000, 9320.000000, 0.210000
3441.568117, -3.426508, 0.333736, 1127.000000, 1135.500000, 9340.000000, 9660.000000, 0.210000
3665.700036, -3.650263, 0.336734, 1127.000000, 1135.500000, 9680.000000, 10000.000000, 0.210000
213.884735, -0.211242, 0.261014, 1136.000000, 1144.500000, 2000.000000, 2340.000000, 0.210000
281.612492, -0.278173, 0.264670, 1136.000000, 1144.500000, 2360.000000, 2700.000000, 0.210000
358.419956, -0.354068, 0.268262, 1136.000000, 1144.500000, 2720.000000, 3060.000000, 0.210000
444.187458, -0.438814, 0.271801, 1136.000000, 1144.500000, 3080.000000, 3420.000000, 0.210000
538.780230, -0.532280, 0.275295, 1136.000000, 1144.500000, 3440.000000, 3780.000000, 0.210000
642.051538, -0.634328, 0.278748, 1136.000000, 1144.500000, 3800.000000, 4140.000000, 0.210000
753.845416, -0.744806, 0.282165, 1136.000000, 1144.500000, 4160.000000, 4500.000000, 0.210000
873.999132, -0.863560, 0.285548, 1136.000000, 1144.500000, 4520.000000, 4860.000000, 0.210000
1002.345415, -0.990430, 0.288899, 1136.000000, 1144.500000, 4880.000000, 5220.000000, 0.210000
1138.714481, -1.125254, 0.292219, 1136.000000, 1144.500000, 5240.000000, 5580.000000, 0.210000
1278.780257, -1.263770, 0.295419, 1136.000000, 1144.500000, 5600.000000, 5920.000000, 0.210000
1421.847846, -1.405273, 0.298502, 1136.000000, 1144.500000, 5940.000000, 6260.000000, 0.210000
1571.631380, -1.553450, 0.301560, 1136.000000, 1144.500000, 6280.000000, 6600.000000, 0.210000
1727.992578, -1.708172, 0.304595, 1136.000000, 1144.500000, 6620.000000, 6940.000000, 0.210000
1890.796681, -1.869307, 0.307607, 1136.000000, 1144.500000, 6960.000000, 7280.000000, 0.210000
2059.913100, -2.036734, 0.310596, 1136.000000, 1144.500000, 7300.000000, 7620.000000, 0.210000
2235.215929, -2.210330, 0.313564, 1136.000000, 1144.500000, 7640.000000, 7960.000000, 0.210000
2416.584354, -2.389983, 0.316510, 1136.000000, 1144.500000, 7980.000000, 8300.000000, 0.210000
2603.902939, -2.575581, 0.319435, 1136.000000, 1144.500000, 8320.000000, 8640.000000, 0.210000
2797.061834, -2.767021, 0.322340, 1136.000000, 1144.500000, 8660.000000, 8980.000000, 0.210000
2995.956880, -2.964203, 0.325226, 1136.000000, 1144.500000, 9000.000000, 9320.000000, 0.210000
3200.489653, -3.167034, 0.328093, 1136.000000, 1144.500000, 9340.000000, 9660.000000, 0.210000
3410.567437, -3.375426, 0.330941, 1136.000000, 1144.500000, 9680.000000, 10000.000000, 0.210000
199.008043, -0.195412, 0.259519, 1145.000000, 1153.500000, 2000.000000, 2340.000000, 0.210000
261.489386, -0.256812, 0.262959, 1145.000000, 1153.500000, 2360.000000, 2700.000000, 0.210000
332.325791, -0.326414, 0.266338, 1145.000000, 1153.500000, 2720.000000, 3060.000000, 0.210000
411.429781, -0.404135, 0.269666, 1145.000000, 1153.500000, 3080.000000, 3420.000000, 0.210000
498.700561, -0.489879, 0.272952, 1145.000000, 1153.500000, 3440.000000, 3780.000000, 0.210000
594.026473, -0.583539, 0.276201, 1145.000000, 1153.500000, 3800.000000, 4140.000000, 0.210000
697.287063, -0.685001, 0.279417, 1145.000000, 1153.500000, 4160.000000, 4500.000000, 0.210000
808.354929, -0.794143, 0.282602, 1145.000000, 1153.500000, 4520.000000, 4860.000000, 0.210000
927.097385, -0.910841, 0.285759, 1145.000000, 1153.500000, 4880.000000, 5220.000000, 0.210000
1053.377991, -1.034964, 0.288889, 1145.000000, 1153.500000, 5240.000000, 5580.000000, 0.210000
1183.203487, -1.162602, 0.291907, 1145.000000, 1153.500000, 5600.000000, 5920.000000, 0.210000
1315.936801, -1.293112, 0.294817, 1145.000000, 1153.500000, 5940.000000, 6260.000000, 0.210000
