Coefficients constant [W],Coefficients T [W/K],Coefficients j [W/(A/m^2)],T_start [K],T_end [K],j_start [A/m^2],j_end [A/m^2],Area [m^2],Temperature starts,Temperature ends,Current density starts,Current density ends
369.656782, -0.381665, 0.276047, 1073.000000, 1080.500000, 2000.000000, 2300.000000, 0.210000, 1073.000000, 1080.500000, 2000.000000, 2300.000000
476.921136, -0.492460, 0.281257, 1073.000000, 1080.500000, 2320.000000, 2620.000000, 0.210000, 1081.000000, 1088.500000, 2320.000000, 2620.000000
596.424169, -0.615923, 0.286367, 1073.000000, 1080.500000, 2640.000000, 2940.000000, 0.210000, 1089.000000, 1096.500000, 2640.000000, 2940.000000
727.635489, -0.751520, 0.291382, 1073.000000, 1080.500000, 2960.000000, 3260.000000, 0.210000, 1097.000000, 1104.500000, 2960.000000, 3260.000000
870.040743, -0.898733, 0.296308, 1073.000000, 1080.500000, 3280.000000, 3580.000000, 0.210000, 1105.000000, 1112.500000, 3280.000000, 3580.000000
1023.153360, -1.057071, 0.301149, 1073.000000, 1080.500000, 3600.000000, 3900.000000, 0.210000, 1113.000000, 1120.500000, 3600.000000, 3900.000000
1186.522539, -1.226081, 0.305910, 1073.000000, 1080.500000, 3920.000000, 4220.000000, 0.210000, 1121.000000, 1128.500000, 3920.000000, 4220.000000
1359.737946, -1.405348, 0.310593, 1073.000000, 1080.500000, 4240.000000, 4540.000000, 0.210000, 1129.000000, 1136.500000, 4240.000000, 4540.000000
1542.431730, -1.594503, 0.315204, 1073.000000, 1080.500000, 4560.000000, 4860.000000, 0.210000, 1137.000000, 1144.500000, 4560.000000, 4860.000000
1734.278446, -1.793216, 0.319746, 1073.000000, 1080.500000, 4880.000000, 5180.000000, 0.210000, 1145.000000, 1152.500000, 4880.000000, 5180.000000
1934.993469, -2.001202, 0.324223, 1073.000000, 1080.500000, 5200.000000, 5500.000000, 0.210000, 1153.000000, 1160.500000, 5200.000000, 5500.000000
2137.604334, -2.211252, 0.328502, 1073.000000, 1080.500000, 5520.000000, 5800.000000, 0.210000, 1161.000000, 1168.000000, 5520.000000, 5800.000000
2341.256874, -2.422449, 0.332591, 1073.000000, 1080.500000, 5820.000000, 6100.000000, 0.210000, 1168.500000, 1175.500000, 5820.000000, 6100.000000
2552.156749, -2.641244, 0.336631, 1073.000000, 1080.500000, 6120.000000, 6400.000000, 0.210000, 1176.000000, 1183.000000, 6120.000000, 6400.000000
2770.176177, -2.867507, 0.340627, 1073.000000, 1080.500000, 6420.000000, 6700.000000, 0.210000, 1183.500000, 1190.500000, 6420.000000, 6700.000000
2995.206757, -3.101130, 0.344580, 1073.000000, 1080.500000, 6720.000000, 7000.000000, 0.210000, 1191.000000, 1198.000000, 6720.000000, 7000.000000
3227.157104, -3.342020, 0.348492, 1073.000000, 1080.500000, 7020.000000, 7300.000000, 0.210000, 1198.500000, 1205.500000, 7020.000000, 7300.000000
3465.950659, -3.590099, 0.352367, 1073.000000, 1080.500000, 7320.000000, 7600.000000, 0.210000, 1206.000000, 1213.000000, 7320.000000, 7600.000000
3711.523696, -3.845304, 0.356207, 1073.000000, 1080.500000, 7620.000000, 7900.000000, 0.210000, 1213.500000, 1220.500000, 7620.000000, 7900.000000
3963.823540, -4.107581, 0.360013, 1073.000000, 1080.500000, 7920.000000, 8200.000000, 0.210000, 1221.000000, 1228.000000, 7920.000000, 8200.000000
4222.806983, -4.376885, 0.363788, 1073.000000, 1080.500000, 8220.000000, 8500.000000, 0.210000, 1228.500000, 1235.500000, 8220.000000, 8500.000000
4488.438885, -4.653183, 0.367533, 1073.000000, 1080.500000, 8520.000000, 8800.000000, 0.210000, 1236.000000, 1243.000000, 8520.000000, 8800.000000
4760.690964, -4.936445, 0.371251, 1073.000000, 1080.500000, 8820.000000, 9100.000000, 0.210000, 1243.500000, 1250.500000, 8820.000000, 9100.000000
5039.540734, -5.226648, 0.374942, 1073.000000, 1080.500000, 9120.000000, 9400.000000, 0.210000, 1251.000000, 1258.000000, 9120.000000, 9400.000000
5324.970599, -5.523776, 0.378609, 1073.000000, 1080.500000, 9420.000000, 9700.000000, 0.210000, 1258.500000, 1265.500000, 9420.000000, 9700.000000
5616.967066, -5.827813, 0.382252, 1073.000000, 1080.500000, 9720.000000, 10000.000000, 0.210000, 1266.000000, 1273.000000, 9720.000000, 10000.000000
342.710903, -0.351751, 0.273544, 1081.000000, 1088.500000, 2000.000000, 2300.000000, 0.210000
442.185835, -0.453882, 0.278441, 1081.000000, 1088.500000, 2320.000000, 2620.000000, 0.210000
553.219345, -0.567898, 0.283250, 1081.000000, 1088.500000, 2640.000000, 2940.000000, 0.210000
675.374683, -0.693361, 0.287976, 1081.000000, 1088.500000, 2960.000000, 3260.000000, 0.210000
808.217692, -0.829838, 0.292625, 1081.000000, 1088.500000, 3280.000000, 3580.000000, 0.210000
951.327075, -0.976907, 0.297200, 1081.000000, 1088.500000, 3600.000000, 3900.000000, 0.210000
1104.302192, -1.134166, 0.301705, 1081.000000, 1088.500000, 3920.000000, 4220.000000, 0.210000
1266.768556, -1.301242, 0.306143, 1081.000000, 1088.500000, 4240.000000, 4540.000000, 0.210000
1438.381288, -1.477789, 0.310516, 1081.000000, 1088.500000, 4560.000000, 4860.000000, 0.210000
1618.826858, -1.663494, 0.314828, 1081.000000, 1088.500000, 4880.000000, 5180.000000, 0.210000
1807.823447, -1.858074, 0.319081, 1081.000000, 1088.500000, 5200.000000, 5500.000000, 0.210000
1998.777712, -2.054757, 0.323149, 1081.000000, 1088.500000, 5520.000000, 5800.000000, 0.210000
2190.851738, -2.252654, 0.327038, 1081.000000, 1088.500000, 5820.000000, 6100.000000, 0.210000
2389.870938, -2.457781, 0.330883, 1081.000000, 1088.500000, 6120.000000, 6400.000000, 0.210000
2595.694269, -2.669996, 0.334686, 1081.000000, 1088.500000, 6420.000000, 6700.000000, 0.210000
2808.198774, -2.889176, 0.338449, 1081.000000, 1088.500000, 6720.000000, 7000.000000, 0.210000
3027.277847, -3.115215, 0.342175, 1081.000000, 1088.500000, 7020.000000, 7300.000000, 0.210000
3252.839541, -3.348021, 0.345865, 1081.000000, 1088.500000, 7320.000000, 7600.000000, 0.210000
3484.804954, -3.587514, 0.349522, 1081.000000, 1088.500000, 7620.000000, 7900.000000, 0.210000
3723.106717, -3.833627, 0.353146, 1081.000000, 1088.500000, 7920.000000, 8200.000000, 0.210000
3967.687605, -4.086302, 0.356740, 1081.000000, 1088.500000, 8220.000000, 8500.000000, 0.210000
4218.499261, -4.345492, 0.360306, 1081.000000, 1088.500000, 8520.000000, 8800.000000, 0.210000
4475.501061, -4.611155, 0.363845, 1081.000000, 1088.500000, 8820.000000, 9100.000000, 0.210000
4738.659086, -4.883258, 0.367358, 1081.000000, 1088.500000, 9120.000000, 9400.000000, 0.210000
5007.945215, -5.161773, 0.370847, 1081.000000, 1088.500000, 9420.000000, 9700.000000, 0.210000
5283.336321, -5.446676, 0.374314, 1081.000000, 1088.500000, 9720.000000, 10000.000000, 0.210000
318.073222, -0.324568, 0.271238, 1089.000000, 1096.500000, 2000.000000, 2300.000000, 0.210000
410.301779, -0.418702, 0.275843, 1089.000000, 1096.500000, 2320.000000, 2620.000000, 0.210000
513.403990, -0.523945, 0.280370, 1089.000000, 1096.500000, 2640.000000, 2940.000000, 0.210000
627.025756, -0.639945, 0.284823, 1089.000000, 1096.500000, 2960.000000, 3260.000000, 0.210000
750.807364, -0.766345, 0.289210, 1089.000000, 1096.500000, 3280.000000, 3580.000000, 0.210000
884.391912, -0.902788, 0.293532, 1089.000000, 1096.500000, 3600.000000, 3900.000000, 0.210000
1027.432176, -1.048932, 0.297792, 1089.000000, 1096.500000, 3920.000000, 4220.000000, 0.210000
1179.595949, -1.204445, 0.301994, 1089.000000, 1096.500000, 4240.000000, 4540.000000, 0.210000
1340.569958, -1.369015, 0.306140, 1089.000000, 1096.500000, 4560.000000, 4860.000000, 0.210000
1510.062486, -1.542354, 0.310231, 1089.000000, 1096.500000, 4880.000000, 5180.000000, 0.210000
1687.804890, -1.724195, 0.314270, 1089.000000, 1096.500000, 5200.000000, 5500.000000, 0.210000
1867.577119, -1.908189, 0.318136, 1089.000000, 1096.500000, 5520.000000, 5800.000000, 0.210000
2048.563839, -2.093478, 0.321835, 1089.000000, 1096.500000, 5820.000000, 6100.000000, 0.210000
2236.232132, -2.285673, 0.325493, 1089.000000, 1096.500000, 6120.000000, 6400.000000, 0.210000
2430.434067, -2.484628, 0.329114, 1089.000000, 1096.500000, 6420.000000, 6700.000000, 0.210000
2631.037605, -2.690210, 0.332698, 1089.000000, 1096.500000, 6720.000000, 7000.000000, 0.210000
2837.925505, -2.902304, 0.336246, 1089.000000, 1096.500000, 7020.000000, 7300.000000, 0.210000
3050.994164, -3.120806, 0.339762, 1089.000000, 1096.500000, 7320.000000, 7600.000000, 0.210000
3270.152445, -3.345626, 0.343246, 1089.000000, 1096.500000, 7620.000000, 7900.000000, 0.210000
3495.320517, -3.576684, 0.346700, 1089.000000, 1096.500000, 7920.000000, 8200.000000, 0.210000
3726.428743, -3.813912, 0.350126, 1089.000000, 1096.500000, 8220.000000, 8500.000000, 0.210000
3963.416620, -4.057249, 0.353524, 1089.000000, 1096.500000, 8520.000000, 8800.000000, 0.210000
4206.231797, -4.306643, 0.356897, 1089.000000, 1096.500000, 8820.000000, 9100.000000, 0.210000
4454.829156, -4.562050, 0.360244, 1089.000000, 1096.500000, 9120.000000, 9400.000000, 0.210000
4709.169984, -4.823432, 0.363569, 1089.000000, 1096.500000, 9420.000000, 9700.000000, 0.210000
4969.221207, -5.090754, 0.366871, 1089.000000, 1096.500000, 9720.000000, 10000.000000, 0.210000
295.572232, -0.299887, 0.269114, 1097.000000, 1104.500000, 2000.000000, 2300.000000, 0.210000
381.084449, -0.386665, 0.273448, 1097.000000, 1104.500000, 2320.000000, 2620.000000, 0.210000
476.791864, -0.483794, 0.277709, 1097.000000, 1104.500000, 2640.000000, 2940.000000, 0.210000
582.411102, -0.590994, 0.281907, 1097.000000, 1104.500000, 2960.000000, 3260.000000, 0.210000
697.648709, -0.707976, 0.286045, 1097.000000, 1104.500000, 3280.000000, 3580.000000, 0.210000
822.207795, -0.834445, 0.290127, 1097.000000, 1104.500000, 3600.000000, 3900.000000, 0.210000
955.793712, -0.970112, 0.294155, 1097.000000, 1104.500000, 3920.000000, 4220.000000, 0.210000
1098.118746, -1.114693, 0.298132, 1097.000000, 1104.500000, 4240.000000, 4540.000000, 0.210000
1248.905881, -1.267913, 0.302060, 1097.000000, 1104.500000, 4560.000000, 4860.000000, 0.210000
1407.891654, -1.429514, 0.305940, 1097.000000, 1104.500000, 4880.000000, 5180.000000, 0.210000
1574.828188, -1.599250, 0.309775, 1097.000000, 1104.500000, 5200.000000, 5500.000000, 0.210000
1743.862219, -1.771185, 0.313447, 1097.000000, 1104.500000, 5520.000000, 5800.000000, 0.210000
1914.207463, -1.944498, 0.316964, 1097.000000, 1104.500000, 5820.000000, 6100.000000, 0.210000
2090.993382, -2.124422, 0.320444, 1097.000000, 1104.500000, 6120.000000, 6400.000000, 0.210000
2274.071425, -2.310809, 0.323890, 1097.000000, 1104.500000, 6420.000000, 6700.000000, 0.210000
2463.306221, -2.503526, 0.327303, 1097.000000, 1104.500000, 6720.000000, 7000.000000, 0.210000
2658.575038, -2.702452, 0.330684, 1097.000000, 1104.500000, 7020.000000, 7300.000000, 0.210000
2859.767115, -2.907479, 0.334034, 1097.000000, 1104.500000, 7320.000000, 7600.000000, 0.210000
3066.782926, -3.118506, 0.337355, 1097.000000, 1104.500000, 7620.000000, 7900.000000, 0.210000
3279.533398, -3.335448, 0.340648, 1097.000000, 1104.500000, 7920.000000, 8200.000000, 0.210000
3497.939105, -3.558226, 0.343915, 1097.000000, 1104.500000, 8220.000000, 8500.000000, 0.210000
3721.929479, -3.786769, 0.347156, 1097.000000, 1104.500000, 8520.000000, 8800.000000, 0.210000
3951.442029, -4.021017, 0.350372, 1097.000000, 1104.500000, 8820.000000, 9100.000000, 0.210000
4186.421599, -4.260916, 0.353565, 1097.000000, 1104.500000, 9120.000000, 9400.000000, 0.210000
4426.819663, -4.506416, 0.356736, 1097.000000, 1104.500000, 9420.000000, 9700.000000, 0.210000
4672.593661, -4.757478, 0.359885, 1097.000000, 1104.500000, 9720.000000, 10000.000000, 0.210000
275.038377, -0.277490, 0.267157, 1105.000000, 1112.500000, 2000.000000, 2300.000000, 0.210000
354.344057, -0.357518, 0.271238, 1105.000000, 1112.500000, 2320.000000, 2620.000000, 0.210000
443.182333, -0.447166, 0.275253, 1105.000000, 1112.500000, 2640.000000, 2940.000000, 0.210000
541.328932, -0.546214, 0.279210, 1105.000000, 1112.500000, 2960.000000, 3260.000000, 0.210000
648.547541, -0.654430, 0.283115, 1105.000000, 1112.500000, 3280.000000, 3580.000000, 0.210000
764.594921, -0.771576, 0.286970, 1105.000000, 1112.500000, 3600.000000, 3900.000000, 0.210000
889.225402, -0.897410, 0.290778, 1105.000000, 1112.500000, 3920.000000, 4220.000000, 0.210000
1022.194780, -1.031694, 0.294541, 1105.000000, 1112.500000, 4240.000000, 4540.000000, 0.210000
1163.263603, -1.174192, 0.298261, 1105.000000, 1112.500000, 4560.000000, 4860.000000, 0.210000
1312.199863, -1.324677, 0.301940, 1105.000000, 1112.500000, 4880.000000, 5180.000000, 0.210000
1468.781123, -1.482931, 0.305578, 1105.000000, 1112.500000, 5200.000000, 5500.000000, 0.210000
1627.512464, -1.643416, 0.309066, 1105.000000, 1112.500000, 5520.000000, 5800.000000, 0.210000
1787.642292, -1.805351, 0.312408, 1105.000000, 1112.500000, 5820.000000, 6100.000000, 0.210000
1953.981929, -1.973614, 0.315718, 1105.000000, 1112.500000, 6120.000000, 6400.000000, 0.210000
2126.387684, -2.148066, 0.318997, 1105.000000, 1112.500000, 6420.000000, 6700.000000, 0.210000
2304.726185, -2.328576, 0.322246, 1105.000000, 1112.500000, 6720.000000, 7000.000000, 0.210000
2488.874252, -2.515023, 0.325467, 1105.000000, 1112.500000, 7020.000000, 7300.000000, 0.210000
2678.718641, -2.707297, 0.328659, 1105.000000, 1112.500000, 7320.000000, 7600.000000, 0.210000
2874.155677, -2.905295, 0.331825, 1105.000000, 1112.500000, 7620.000000, 7900.000000, 0.210000
3075.090814, -3.108925, 0.334966, 1105.000000, 1112.500000, 7920.000000, 8200.000000, 0.210000
3281.438141, -3.318104, 0.338081, 1105.000000, 1112.500000, 8220.000000, 8500.000000, 0.210000
3493.119851, -3.532754, 0.341173, 1105.000000, 1112.500000, 8520.000000, 8800.000000, 0.210000
3710.065699, -3.752808, 0.344243, 1105.000000, 1112.500000, 8820.000000, 9100.000000, 0.210000
3932.212450, -3.978204, 0.347290, 1105.000000, 1112.500000, 9120.000000, 9400.000000, 0.210000
4159.503341, -4.208886, 0.350316, 1105.000000, 1112.500000, 9420.000000, 9700.000000, 0.210000
4391.887553, -4.444804, 0.353323, 1105.000000, 1112.500000, 9720.000000, 10000.000000, 0.210000
256.307762, -0.257169, 0.265352, 1113.000000, 1120.500000, 2000.000000, 2300.000000, 0.210000
329.891387, -0.331015, 0.269198, 1113.000000, 1120.500000, 2320.000000, 2620.000000, 0.210000
412.368077, -0.413784, 0.272984, 1113.000000, 1120.500000, 2640.000000, 2940.000000, 0.210000
503.562069, -0.505304, 0.276717, 1113.000000, 1120.500000, 2960.000000, 3260.000000, 0.210000
603.285155, -0.605392, 0.280403, 1113.000000, 1120.500000, 3280.000000, 3580.000000, 0.210000
711.340572, -0.713856, 0.284044, 1113.000000, 1120.500000, 3600.000000, 3900.000000, 0.210000
827.526485, -0.830499, 0.287644, 1113.000000, 1120.500000, 3920.000000, 4220.000000, 0.210000
951.639082, -0.955122, 0.291205, 1113.000000, 1120.500000, 4240.000000, 4540.000000, 0.210000
1083.475294, -1.087528, 0.294727, 1113.000000, 1120.500000, 4560.000000, 4860.000000, 0.210000
1222.835134, -1.227522, 0.298214, 1113.000000, 1120.500000, 4880.000000, 5180.000000, 0.210000
1369.523654, -1.374915, 0.301665, 1113.000000, 1120.500000, 5200.000000, 5500.000000, 0.210000
1518.393377, -1.524548, 0.304977, 1113.000000, 1120.500000, 5520.000000, 5800.000000, 0.210000
1668.731650, -1.675686, 0.308151, 1113.000000, 1120.500000, 5820.000000, 6100.000000, 0.210000
1825.049926, -1.832877, 0.311298, 1113.000000, 1120.500000, 6120.000000, 6400.000000, 0.210000
1987.213631, -1.995992, 0.314417, 1113.000000, 1120.500000, 6420.000000, 6700.000000, 0.210000
2155.095791, -2.164905, 0.317510, 1113.000000, 1120.500000, 6720.000000, 7000.000000, 0.210000
2328.577190, -2.339502, 0.320577, 1113.000000, 1120.500000, 7020.000000, 7300.000000, 0.210000
2507.546405, -2.519674, 0.323619, 1113.000000, 1120.500000, 7320.000000, 7600.000000, 0.210000
2691.899723, -2.705321, 0.326637, 1113.000000, 1120.500000, 7620.000000, 7900.000000, 0.210000
2881.540976, -2.896348, 0.329632, 1113.000000, 1120.500000, 7920.000000, 8200.000000, 0.210000
3076.381311, -3.092669, 0.332604, 1113.000000, 1120.500000, 8220.000000, 8500.000000, 0.210000
3276.338897, -3.294206, 0.335555, 1113.000000, 1120.500000, 8520.000000, 8800.000000, 0.210000
3481.338596, -3.500885, 0.338485, 1113.000000, 1120.500000, 8820.000000, 9100.000000, 0.210000
3691.311619, -3.712639, 0.341394, 1113.000000, 1120.500000, 9120.000000, 9400.000000, 0.210000
3906.195143, -3.929407, 0.344284, 1113.000000, 1120.500000, 9420.000000, 9700.000000, 0.210000
4125.931945, -4.151135, 0.347155, 1113.000000, 1120.500000, 9720.000000, 10000.000000, 0.210000
239.224654, -0.238729, 0.263686, 1121.000000, 1128.500000, 2000.000000, 2300.000000, 0.210000
307.542184, -0.306923, 0.267316, 1121.000000, 1128.500000, 2320.000000, 2620.000000, 0.210000
384.141453, -0.383380, 0.270889, 1121.000000, 1128.500000, 2640.000000, 2940.000000, 0.210000
468.885972, -0.467968, 0.274413, 1121.000000, 1128.500000, 2960.000000, 3260.000000, 0.210000
561.627287, -0.560541, 0.277893, 1121.000000, 1128.500000, 3280.000000, 3580.000000, 0.210000
662.207947, -0.660948, 0.281334, 1121.000000, 1128.500000, 3600.000000, 3900.000000, 0.210000
770.464162, -0.769030, 0.284738, 1121.000000, 1128.500000, 3920.000000, 4220.000000, 0.210000
886.228215, -0.884625, 0.288108, 1121.000000, 1128.500000, 4240.000000, 4540.000000, 0.210000
1009.330624, -1.007568, 0.291443, 1121.000000, 1128.500000, 4560.000000, 4860.000000, 0.210000
1139.602066, -1.137696, 0.294748, 1121.000000, 1128.500000, 4880.000000, 5180.000000, 0.210000
1276.875061, -1.274847, 0.298021, 1121.000000, 1128.500000, 5200.000000, 5500.000000, 0.210000
1416.336258, -1.414226, 0.301163, 1121.000000, 1128.500000, 5520.000000, 5800.000000, 0.210000
1557.314605, -1.555143, 0.304179, 1121.000000, 1128.500000, 5820.000000, 6100.000000, 0.210000
1704.038850, -1.701839, 0.307169, 1121.000000, 1128.500000, 6120.000000, 6400.000000, 0.210000
1856.386400, -1.854195, 0.310136, 1121.000000, 1128.500000, 6420.000000, 6700.000000, 0.210000
2014.239891, -2.012097, 0.313079, 1121.000000, 1128.500000, 6720.000000, 7000.000000, 0.210000
2177.487506, -2.175439, 0.315999, 1121.000000, 1128.500000, 7020.000000, 7300.000000, 0.210000
2346.023187, -2.344116, 0.318897, 1121.000000, 1128.500000, 7320.000000, 7600.000000, 0.210000
2519.746746, -2.518033, 0.321774, 1121.000000, 1128.500000, 7620.000000, 7900.000000, 0.210000
2698.563897, -2.697099, 0.324629, 1121.000000, 1128.500000, 7920.000000, 8200.000000, 0.210000
2882.386219, -2.881229, 0.327465, 1121.000000, 1128.500000, 8220.000000, 8500.000000, 0.210000
3071.131059, -3.070342, 0.330280, 1121.000000, 1128.500000, 8520.000000, 8800.000000, 0.210000
3264.721383, -3.264364, 0.333077, 1121.000000, 1128.500000, 8820.000000, 9100.000000, 0.210000
3463.085596, -3.463228, 0.335855, 1121.000000, 1128.500000, 9120.000000, 9400.000000, 0.210000
3666.157331, -3.666868, 0.338615, 1121.000000, 1128.500000, 9420.000000, 9700.000000, 0.210000
3873.875208, -3.875225, 0.341358, 1121.000000, 1128.500000, 9720.000000, 10000.000000, 0.210000
223.642999, -0.221992, 0.262146, 1129.000000, 1136.500000, 2000.000000, 2300.000000, 0.210000
287.120232, -0.285023, 0.265576, 1129.000000, 1136.500000, 2320.000000, 2620.000000, 0.210000
358.299383, -0.355697, 0.268952, 1129.000000, 1136.500000, 2640.000000, 2940.000000, 0.210000
437.075434, -0.433913, 0.272282, 1129.000000, 1136.500000, 2960.000000, 3260.000000, 0.210000
523.332325, -0.519556, 0.275571, 1129.000000, 1136.500000, 3280.000000, 3580.000000, 0.210000
616.945246, -0.612509, 0.278825, 1129.000000, 1136.500000, 3600.000000, 3900.000000, 0.210000
717.782669, -0.712644, 0.282045, 1129.000000, 1136.500000, 3920.000000, 4220.000000, 0.210000
825.708205, -0.819829, 0.285234, 1129.000000, 1136.500000, 4240.000000, 4540.000000, 0.210000
940.582283, -0.933931, 0.288393, 1129.000000, 1136.500000, 4560.000000, 4860.000000, 0.210000
1062.263681, -1.054815, 0.291525, 1129.000000, 1136.500000, 4880.000000, 5180.000000, 0.210000
1190.610908, -1.182343, 0.294629, 1129.000000, 1136.500000, 5200.000000, 5500.000000, 0.210000
1321.129413, -1.312064, 0.297611, 1129.000000, 1136.500000, 5520.000000, 5800.000000, 0.210000
