Coefficients constant [W],Coefficients T [W/K],Coefficients j [W/(A/m^2)],T_start [K],T_end [K],j_start [A/m^2],j_end [A/m^2],Area [m^2],Temperature starts,Temperature ends,Current density starts,Current density ends
344.298498, -1.311553, 0.472382, 293.000000, 295.500000, 1500.000000, 2078.125000, 0.210000, 293.000000, 295.500000, 1500.000000, 2078.125000
520.467596, -2.008468, 0.485936, 293.000000, 295.500000, 2193.750000, 2771.875000, 0.210000, 296.000000, 298.500000, 2193.750000, 2771.875000
723.482437, -2.820696, 0.498662, 293.000000, 295.500000, 2887.500000, 3465.625000, 0.210000, 299.000000, 301.500000, 2887.500000, 3465.625000
953.681565, -3.749723, 0.510918, 293.000000, 295.500000, 3581.250000, 4159.375000, 0.210000, 302.000000, 304.500000, 3581.250000, 4159.375000
1211.217318, -4.796427, 0.522885, 293.000000, 295.500000, 4275.000000, 4853.125000, 0.210000, 305.000000, 307.500000, 4275.000000, 4853.125000
1496.129491, -5.961357, 0.534670, 293.000000, 295.500000, 4968.750000, 5546.875000, 0.210000, 308.000000, 310.500000, 4968.750000, 5546.875000
1808.376458, -7.244855, 0.546343, 293.000000, 295.500000, 5662.500000, 6240.625000, 0.210000, 311.000000, 313.500000, 5662.500000, 6240.625000
2147.847936, -8.647120, 0.557957, 293.000000, 295.500000, 6356.250000, 6934.375000, 0.210000, 314.000000, 316.500000, 6356.250000, 6934.375000
2514.367886, -10.168244, 0.569551, 293.000000, 295.500000, 7050.000000, 7628.125000, 0.210000, 317.000000, 319.500000, 7050.000000, 7628.125000
2907.690678, -11.808231, 0.581162, 293.000000, 295.500000, 7743.750000, 8321.875000, 0.210000, 320.000000, 322.500000, 7743.750000, 8321.875000
3327.491382, -13.567000, 0.592823, 293.000000, 295.500000, 8437.500000, 9015.625000, 0.210000, 323.000000, 325.500000, 8437.500000, 9015.625000
3773.349677, -15.444396, 0.604568, 293.000000, 295.500000, 9131.250000, 9709.375000, 0.210000, 326.000000, 328.500000, 9131.250000, 9709.375000
4244.725751, -17.440180, 0.616431, 293.000000, 295.500000, 9825.000000, 10403.125000, 0.210000, 329.000000, 331.500000, 9825.000000, 10403.125000
4740.925164, -19.554021, 0.628456, 293.000000, 295.500000, 10518.750000, 11096.875000, 0.210000, 332.000000, 334.500000, 10518.750000, 11096.875000
5261.047602, -21.785486, 0.640691, 293.000000, 295.500000, 11212.500000, 11790.625000, 0.210000, 335.000000, 337.500000, 11212.500000, 11790.625000
5803.911138, -24.134007, 0.653197, 293.000000, 295.500000, 11906.250000, 12484.375000, 0.210000, 338.000000, 340.500000, 11906.250000, 12484.375000
6367.937765, -26.598858, 0.666052, 293.000000, 295.500000, 12600.000000, 13178.125000, 0.210000, 341.000000, 343.500000, 12600.000000, 13178.125000
6950.975359, -29.179094, 0.679363, 293.000000, 295.500000, 13293.750000, 13871.875000, 0.210000, 344.000000, 346.500000, 13293.750000, 13871.875000
7550.010863, -31.873481, 0.693272, 293.000000, 295.500000, 13987.500000, 14565.625000, 0.210000, 347.000000, 349.500000, 13987.500000, 14565.625000
8160.688045, -34.680373, 0.707989, 293.000000, 295.500000, 14681.250000, 15259.375000, 0.210000, 350.000000, 352.500000, 14681.250000, 15259.375000
8776.453612, -37.597522, 0.723824, 293.000000, 295.500000, 15375.000000, 15953.125000, 0.210000, 353.000000, 355.500000, 15375.000000, 15953.125000
9336.369696, -40.364428, 0.739718, 293.000000, 295.500000, 16068.750000, 16531.250000, 0.210000, 356.000000, 358.000000, 16068.750000, 16531.250000
9831.165895, -42.956203, 0.755859, 293.000000, 295.500000, 16646.875000, 17109.375000, 0.210000, 358.500000, 360.500000, 16646.875000, 17109.375000
10295.470118, -45.615583, 0.774389, 293.000000, 295.500000, 17225.000000, 17687.500000, 0.210000, 361.000000, 363.000000, 17225.000000, 17687.500000
10700.529669, -48.336641, 0.796673, 293.000000, 295.500000, 17803.125000, 18265.625000, 0.210000, 363.500000, 365.500000, 17803.125000, 18265.625000
10990.067335, -51.109625, 0.825384, 293.000000, 295.500000, 18381.250000, 18843.750000, 0.210000, 366.000000, 368.000000, 18381.250000, 18843.750000
11036.123326, -53.916635, 0.866610, 293.000000, 295.500000, 18959.375000, 19421.875000, 0.210000, 368.500000, 370.500000, 18959.375000, 19421.875000
10467.187950, -56.718406, 0.938045, 293.000000, 295.500000, 19537.500000, 20000.000000, 0.210000, 371.000000, 373.000000, 19537.500000, 20000.000000
349.942945, -1.314040, 0.469639, 296.000000, 298.500000, 1500.000000, 2078.125000, 0.210000
524.658290, -1.995623, 0.482718, 296.000000, 298.500000, 2193.750000, 2771.875000, 0.210000
724.186728, -2.783331, 0.494962, 296.000000, 298.500000, 2887.500000, 3465.625000, 0.210000
948.870256, -3.678651, 0.506731, 296.000000, 298.500000, 3581.250000, 4159.375000, 0.210000
1198.862766, -4.682461, 0.518208, 296.000000, 298.500000, 4275.000000, 4853.125000, 0.210000
1474.204458, -5.795308, 0.529501, 296.000000, 298.500000, 4968.750000, 5546.875000, 0.210000
1774.853280, -7.017536, 0.540681, 296.000000, 298.500000, 5662.500000, 6240.625000, 0.210000
2100.697827, -8.349343, 0.551801, 296.000000, 298.500000, 6356.250000, 6934.375000, 0.210000
2451.560265, -9.790822, 0.562901, 296.000000, 298.500000, 7050.000000, 7628.125000, 0.210000
2827.192458, -11.341974, 0.574019, 296.000000, 298.500000, 7743.750000, 8321.875000, 0.210000
3227.266164, -13.002723, 0.585186, 296.000000, 298.500000, 8437.500000, 9015.625000, 0.210000
3651.356777, -14.772910, 0.596438, 296.000000, 298.500000, 9131.250000, 9709.375000, 0.210000
4098.918982, -16.652298, 0.607811, 296.000000, 298.500000, 9825.000000, 10403.125000, 0.210000
4569.251257, -18.640555, 0.619346, 296.000000, 298.500000, 10518.750000, 11096.875000, 0.210000
5061.444110, -20.737248, 0.631093, 296.000000, 298.500000, 11212.500000, 11790.625000, 0.210000
5574.303565, -22.941810, 0.643114, 296.000000, 298.500000, 11906.250000, 12484.375000, 0.210000
6106.235524, -25.253514, 0.655489, 296.000000, 298.500000, 12600.000000, 13178.125000, 0.210000
6655.065924, -27.671415, 0.668323, 296.000000, 298.500000, 13293.750000, 13871.875000, 0.210000
7217.750986, -30.194280, 0.681762, 296.000000, 298.500000, 13987.500000, 14565.625000, 0.210000
7789.890066, -32.820462, 0.696016, 296.000000, 298.500000, 14681.250000, 15259.375000, 0.210000
8364.863057, -35.547713, 0.711401, 296.000000, 298.500000, 15375.000000, 15953.125000, 0.210000
8885.353815, -38.132593, 0.726896, 296.000000, 298.500000, 16068.750000, 16531.250000, 0.210000
9342.445605, -40.552083, 0.742691, 296.000000, 298.500000, 16646.875000, 17109.375000, 0.210000
9767.132908, -43.032797, 0.760900, 296.000000, 298.500000, 17225.000000, 17687.500000, 0.210000
10130.369882, -45.568810, 0.782901, 296.000000, 298.500000, 17803.125000, 18265.625000, 0.210000
10375.305543, -48.150369, 0.811394, 296.000000, 298.500000, 18381.250000, 18843.750000, 0.210000
10372.675501, -50.759572, 0.852530, 296.000000, 298.500000, 18959.375000, 19421.875000, 0.210000
9747.182368, -53.357157, 0.924184, 296.000000, 298.500000, 19537.500000, 20000.000000, 0.210000
356.339654, -1.319270, 0.466937, 299.000000, 301.500000, 1500.000000, 2078.125000, 0.210000
530.181799, -1.988032, 0.479581, 299.000000, 301.500000, 2193.750000, 2771.875000, 0.210000
726.967705, -2.754545, 0.491380, 299.000000, 301.500000, 2887.500000, 3465.625000, 0.210000
947.042820, -3.620298, 0.502699, 299.000000, 301.500000, 3581.250000, 4159.375000, 0.210000
1190.562589, -4.586169, 0.513724, 299.000000, 301.500000, 4275.000000, 4853.125000, 0.210000
1457.567618, -5.652704, 0.524563, 299.000000, 301.500000, 4968.750000, 5546.875000, 0.210000
1748.015430, -6.820247, 0.535288, 299.000000, 301.500000, 5662.500000, 6240.625000, 0.210000
2061.793496, -8.088997, 0.545952, 299.000000, 301.500000, 6356.250000, 6934.375000, 0.210000
2398.722186, -9.459047, 0.556597, 299.000000, 301.500000, 7050.000000, 7628.125000, 0.210000
2758.550863, -10.930398, 0.567258, 299.000000, 301.500000, 7743.750000, 8321.875000, 0.210000
3140.947969, -12.502972, 0.577970, 299.000000, 301.500000, 8437.500000, 9015.625000, 0.210000
3545.484614, -14.176613, 0.588768, 299.000000, 301.500000, 9131.250000, 9709.375000, 0.210000
3971.609979, -15.951081, 0.599687, 299.000000, 301.500000, 9825.000000, 10403.125000, 0.210000
4418.615462, -17.826047, 0.610771, 299.000000, 301.500000, 10518.750000, 11096.875000, 0.210000
4885.582393, -19.801076, 0.622068, 299.000000, 301.500000, 11212.500000, 11790.625000, 0.210000
5371.304744, -21.875601, 0.633643, 299.000000, 301.500000, 11906.250000, 12484.375000, 0.210000
5874.172329, -24.048896, 0.645574, 299.000000, 301.500000, 12600.000000, 13178.125000, 0.210000
6391.989144, -26.320016, 0.657970, 299.000000, 301.500000, 13293.750000, 13871.875000, 0.210000
6921.680690, -28.687727, 0.670976, 299.000000, 301.500000, 13987.500000, 14565.625000, 0.210000
7458.801910, -31.150382, 0.684807, 299.000000, 301.500000, 14681.250000, 15259.375000, 0.210000
7996.665883, -33.705734, 0.699778, 299.000000, 301.500000, 15375.000000, 15953.125000, 0.210000
8481.248627, -36.125791, 0.714909, 299.000000, 301.500000, 16068.750000, 16531.250000, 0.210000
8903.955150, -38.389241, 0.730390, 299.000000, 301.500000, 16646.875000, 17109.375000, 0.210000
9292.458088, -40.708101, 0.748310, 299.000000, 301.500000, 17225.000000, 17687.500000, 0.210000
9617.418455, -43.076445, 0.770059, 299.000000, 301.500000, 17803.125000, 18265.625000, 0.210000
9821.411496, -45.484520, 0.798367, 299.000000, 301.500000, 18381.250000, 18843.750000, 0.210000
9773.868217, -47.914426, 0.839445, 299.000000, 301.500000, 18959.375000, 19421.875000, 0.210000
9095.703538, -50.326900, 0.911348, 299.000000, 301.500000, 19537.500000, 20000.000000, 0.210000
363.435729, -1.326964, 0.464269, 302.000000, 304.500000, 1500.000000, 2078.125000, 0.210000
536.937013, -1.985156, 0.476511, 302.000000, 304.500000, 2193.750000, 2771.875000, 0.210000
731.660381, -2.733460, 0.487900, 302.000000, 304.500000, 2887.500000, 3465.625000, 0.210000
947.954733, -3.573362, 0.498805, 302.000000, 304.500000, 3581.250000, 4159.375000, 0.210000
1185.977065, -4.505741, 0.509412, 302.000000, 304.500000, 4275.000000, 4853.125000, 0.210000
1445.768391, -5.531144, 0.519831, 302.000000, 304.500000, 4968.750000, 5546.875000, 0.210000
1727.285810, -6.649914, 0.530136, 302.000000, 304.500000, 5662.500000, 6240.625000, 0.210000
2030.415667, -7.862251, 0.540379, 302.000000, 304.500000, 6356.250000, 6934.375000, 0.210000
2354.976538, -9.168246, 0.550602, 302.000000, 304.500000, 7050.000000, 7628.125000, 0.210000
2700.715280, -10.567902, 0.560842, 302.000000, 304.500000, 7743.750000, 8321.875000, 0.210000
3067.297026, -12.061140, 0.571134, 302.000000, 304.500000, 8437.500000, 9015.625000, 0.210000
3454.288597, -13.647804, 0.581511, 302.000000, 304.500000, 9131.250000, 9709.375000, 0.210000
3861.133671, -15.327655, 0.592012, 302.000000, 304.500000, 9825.000000, 10403.125000, 0.210000
4287.116568, -17.100363, 0.602678, 302.000000, 304.500000, 10518.750000, 11096.875000, 0.210000
4731.309436, -18.965493, 0.613561, 302.000000, 304.500000, 11212.500000, 11790.625000, 0.210000
5192.494200, -20.922479, 0.624724, 302.000000, 304.500000, 11906.250000, 12484.375000, 0.210000
5669.044583, -22.970593, 0.636247, 302.000000, 304.500000, 12600.000000, 13178.125000, 0.210000
6158.742640, -25.108892, 0.648238, 302.000000, 304.500000, 13293.750000, 13871.875000, 0.210000
6658.483153, -27.336140, 0.660847, 302.000000, 304.500000, 13987.500000, 14565.625000, 0.210000
7163.776651, -29.650693, 0.674288, 302.000000, 304.500000, 14681.250000, 15259.375000, 0.210000
7667.869400, -32.050302, 0.688881, 302.000000, 304.500000, 15375.000000, 15953.125000, 0.210000
8119.730995, -34.320979, 0.703679, 302.000000, 304.500000, 16068.750000, 16531.250000, 0.210000
8511.059331, -36.442969, 0.718875, 302.000000, 304.500000, 16646.875000, 17109.375000, 0.210000
8866.487523, -38.615064, 0.736534, 302.000000, 304.500000, 17225.000000, 17687.500000, 0.210000
9156.383439, -40.831336, 0.758061, 302.000000, 304.500000, 17803.125000, 18265.625000, 0.210000
9322.748555, -43.082034, 0.786212, 302.000000, 304.500000, 18381.250000, 18843.750000, 0.210000
9233.709274, -45.349256, 0.827260, 302.000000, 304.500000, 18959.375000, 19421.875000, 0.210000
8506.392822, -47.593740, 0.899442, 302.000000, 304.500000, 19537.500000, 20000.000000, 0.210000
371.184040, -1.336871, 0.461626, 305.000000, 307.500000, 1500.000000, 2078.125000, 0.210000
544.833844, -1.986520, 0.473498, 305.000000, 307.500000, 2193.750000, 2771.875000, 0.210000
738.117757, -2.719297, 0.484509, 305.000000, 307.500000, 2887.500000, 3465.625000, 0.210000
951.388131, -3.536690, 0.495031, 305.000000, 307.500000, 3581.250000, 4159.375000, 0.210000
1184.803517, -4.439576, 0.505252, 305.000000, 307.500000, 4275.000000, 4853.125000, 0.210000
1438.405332, -5.428504, 0.515283, 305.000000, 307.500000, 4968.750000, 5546.875000, 0.210000
1712.150251, -6.503816, 0.525199, 305.000000, 307.500000, 5662.500000, 6240.625000, 0.210000
2005.923497, -7.665712, 0.535052, 305.000000, 307.500000, 6356.250000, 6934.375000, 0.210000
2319.541848, -8.914283, 0.544885, 305.000000, 307.500000, 7050.000000, 7628.125000, 0.210000
2652.749660, -10.249532, 0.554736, 305.000000, 307.500000, 7743.750000, 8321.875000, 0.210000
3005.208750, -11.671381, 0.564638, 305.000000, 307.500000, 8437.500000, 9015.625000, 0.210000
3376.481656, -13.179672, 0.574627, 305.000000, 307.500000, 9131.250000, 9709.375000, 0.210000
3766.006552, -14.774167, 0.584741, 305.000000, 307.500000, 9825.000000, 10403.125000, 0.210000
4173.060675, -16.454537, 0.595022, 305.000000, 307.500000, 10518.750000, 11096.875000, 0.210000
4596.706999, -18.220345, 0.605522, 305.000000, 307.500000, 11212.500000, 11790.625000, 0.210000
5035.715395, -20.071027, 0.616304, 305.000000, 307.500000, 11906.250000, 12484.375000, 0.210000
5488.443499, -22.005854, 0.627450, 305.000000, 307.500000, 12600.000000, 13178.125000, 0.210000
5952.651424, -24.023883, 0.639069, 305.000000, 307.500000, 13293.750000, 13871.875000, 0.210000
6425.203232, -26.123878, 0.651312, 305.000000, 307.500000, 13987.500000, 14565.625000, 0.210000
6901.565039, -28.304196, 0.664394, 305.000000, 307.500000, 14681.250000, 15259.375000, 0.210000
7374.916297, -30.562586, 0.678641, 305.000000, 307.500000, 15375.000000, 15953.125000, 0.210000
7796.949194, -32.697767, 0.693136, 305.000000, 307.500000, 16068.750000, 16531.250000, 0.210000
8159.628390, -34.691407, 0.708073, 305.000000, 307.500000, 16646.875000, 17109.375000, 0.210000
8484.803731, -36.730302, 0.725497, 305.000000, 307.500000, 17225.000000, 17687.500000, 0.210000
8742.549941, -38.808524, 0.746828, 305.000000, 307.500000, 17803.125000, 18265.625000, 0.210000
8874.294726, -40.916324, 0.774848, 305.000000, 307.500000, 18381.250000, 18843.750000, 0.210000
8746.859886, -43.035799, 0.815894, 305.000000, 307.500000, 18959.375000, 19421.875000, 0.210000
7973.584953, -45.127686, 0.888381, 305.000000, 307.500000, 19537.500000, 20000.000000, 0.210000
379.542525, -1.348773, 0.459001, 308.000000, 310.500000, 1500.000000, 2078.125000, 0.210000
553.791891, -1.991701, 0.470532, 308.000000, 310.500000, 2193.750000, 2771.875000, 0.210000
746.208641, -2.711368, 0.481194, 308.000000, 310.500000, 2887.500000, 3465.625000, 0.210000
957.148580, -3.509260, 0.491362, 308.000000, 310.500000, 3581.250000, 4159.375000, 0.210000
1186.771811, -4.386255, 0.501226, 308.000000, 310.500000, 4275.000000, 4853.125000, 0.210000
1435.120158, -5.342901, 0.510898, 308.000000, 310.500000, 4968.750000, 5546.875000, 0.210000
1702.149872, -6.379541, 0.520454, 308.000000, 310.500000, 5662.500000, 6240.625000, 0.210000
1987.745049, -7.496373, 0.529946, 308.000000, 310.500000, 6356.250000, 6934.375000, 0.210000
2291.720676, -8.693491, 0.539419, 308.000000, 310.500000, 7050.000000, 7628.125000, 0.210000
2613.818601, -9.970896, 0.548908, 308.000000, 310.500000, 7743.750000, 8321.875000, 0.210000
2953.697331, -11.328510, 0.558450, 308.000000, 310.500000, 8437.500000, 9015.625000, 0.210000
3310.915116, -12.766177, 0.568080, 308.000000, 310.500000, 9131.250000, 9709.375000, 0.210000
3684.904629, -14.283657, 0.577836, 308.000000, 310.500000, 9825.000000, 10403.125000, 0.210000
4074.936027, -15.880620, 0.587761, 308.000000, 310.500000, 10518.750000, 11096.875000, 0.210000
4480.063102, -17.556632, 0.597906, 308.000000, 310.500000, 11212.500000, 11790.625000, 0.210000
4899.043676, -19.311127, 0.608336, 308.000000, 310.500000, 11906.250000, 12484.375000, 0.210000
5330.219299, -21.143377, 0.619134, 308.000000, 310.500000, 12600.000000, 13178.125000, 0.210000
5771.328139, -23.052437, 0.630410, 308.000000, 310.500000, 13293.750000, 13871.875000, 0.210000
6219.203540, -25.037075, 0.642315, 308.000000, 310.500000, 13987.500000, 14565.625000, 0.210000
6669.267205, -27.095643, 0.655069, 308.000000, 310.500000, 14681.250000, 15259.375000, 0.210000
7114.631772, -29.225894, 0.668998, 308.000000, 310.500000, 15375.000000, 15953.125000, 0.210000
7509.465662, -31.238082, 0.683215, 308.000000, 310.500000, 16068.750000, 16531.250000, 0.210000
7845.976627, -33.115175, 0.697918, 308.000000, 310.500000, 16646.875000, 17109.375000, 0.210000
8143.464229, -35.033086, 0.715132, 308.000000, 310.500000, 17225.000000, 17687.500000, 0.210000
8371.710045, -36.985887, 0.736290, 308.000000, 310.500000, 17803.125000, 18265.625000, 0.210000
8471.568013, -38.963827, 0.764204, 308.000000, 310.500000, 18381.250000, 18843.750000, 0.210000
8308.555331, -40.949004, 0.805271, 308.000000, 310.500000, 18959.375000, 19421.875000, 0.210000
7492.223834, -42.902155, 0.878086, 308.000000, 310.500000, 19537.500000, 20000.000000, 0.210000
388.473581, -1.362472, 0.456389, 311.000000, 313.500000, 1500.000000, 2078.125000, 0.210000
563.739276, -2.000326, 0.467606, 311.000000, 313.500000, 2193.750000, 2771.875000, 0.210000
755.815750, -2.709061, 0.477944, 311.000000, 313.500000, 2887.500000, 3465.625000, 0.210000
965.062259, -3.490166, 0.487784, 311.000000, 313.500000, 3581.250000, 4159.375000, 0.210000
1191.640460, -4.344517, 0.497318, 311.000000, 313.500000, 4275.000000, 4853.125000, 0.210000
1435.592582, -5.272663, 0.506658, 311.000000, 313.500000, 4968.750000, 5546.875000, 0.210000
1696.874451, -6.274946, 0.515880, 311.000000, 313.500000, 5662.500000, 6240.625000, 0.210000
1975.369039, -7.351567, 0.525038, 311.000000, 313.500000, 6356.250000, 6934.375000, 0.210000
2270.889538, -8.502616, 0.534176, 311.000000, 313.500000, 7050.000000, 7628.125000, 0.210000
2583.175294, -9.728096, 0.543331, 311.000000, 313.500000, 7743.750000, 8321.875000, 0.210000
2911.881497, -11.027929, 0.552540, 311.000000, 313.500000, 8437.500000, 9015.625000, 0.210000
3256.562116, -12.401958, 0.561836, 311.000000, 313.500000, 9131.250000, 9709.375000, 0.210000
3616.644318, -13.849944, 0.571260, 311.000000, 313.500000, 9825.000000, 10403.125000, 0.210000
3991.391179, -15.371557, 0.580855, 311.000000, 313.500000, 10518.750000, 11096.875000, 0.210000
4379.847314, -16.966363, 0.590672, 311.000000, 313.500000, 11212.500000, 11790.625000, 0.210000
4780.758495, -18.633795, 0.600777, 311.000000, 313.500000, 11906.250000, 12484.375000, 0.210000
5192.450181, -20.373126, 0.611254, 311.000000, 313.500000, 12600.000000, 13178.125000, 0.210000
5612.638600, -22.183412, 0.622212, 311.000000, 313.500000, 13293.750000, 13871.875000, 0.210000
6038.126378, -24.063418, 0.633807, 311.000000, 313.500000, 13987.500000, 14565.625000, 0.210000
6464.290801, -26.011499, 0.646258, 311.000000, 313.500000, 14681.250000, 15259.375000, 0.210000
6884.177696, -28.025406, 0.659896, 311.000000, 313.500000, 15375.000000, 15953.125000, 0.210000
7254.207382, -29.925875, 0.673861, 311.000000, 313.500000, 16068.750000, 16531.250000, 0.210000
7566.809202, -31.697068, 0.688351, 311.000000, 313.500000, 16646.875000, 17109.375000, 0.210000
7838.944621, -33.505012, 0.705376, 311.000000, 313.500000, 17225.000000, 17687.500000, 0.210000
8040.102073, -35.343779, 0.726385, 311.000000, 313.500000, 17803.125000, 18265.625000, 0.210000
