Coefficients constant [W],Coefficients T [W/K],Coefficients j [W/(A/m^2)],T_start [K],T_end [K],j_start [A/m^2],j_end [A/m^2],Area [m^2],Temperature starts,Temperature ends,Current density starts,Current density ends
374.129171, -1.423345, 0.474226, 293.000000, 296.500000, 1500.000000, 2309.375000, 0.210000, 293.000000, 296.500000, 1500.000000, 2309.375000
620.366746, -2.399418, 0.491782, 293.000000, 296.500000, 2425.000000, 3234.375000, 0.210000, 297.000000, 300.500000, 2425.000000, 3234.375000
914.050696, -3.579055, 0.508203, 293.000000, 296.500000, 3350.000000, 4159.375000, 0.210000, 301.000000, 304.500000, 3350.000000, 4159.375000
1255.678785, -4.964826, 0.524055, 293.000000, 296.500000, 4275.000000, 5084.375000, 0.210000, 305.000000, 308.500000, 4275.000000, 5084.375000
1645.350481, -6.558067, 0.539603, 293.000000, 296.500000, 5200.000000, 6009.375000, 0.210000, 309.000000, 312.500000, 5200.000000, 6009.375000
2082.911642, -8.359479, 0.554999, 293.000000, 296.500000, 6125.000000, 6934.375000, 0.210000, 313.000000, 316.500000, 6125.000000, 6934.375000
2567.995501, -10.369367, 0.570349, 293.000000, 296.500000, 7050.000000, 7859.375000, 0.210000, 317.000000, 320.500000, 7050.000000, 7859.375000
3100.015911, -12.587737, 0.585739, 293.000000, 296.500000, 7975.000000, 8784.375000, 0.210000, 321.000000, 324.500000, 7975.000000, 8784.375000
3678.125826, -15.014344, 0.601246, 293.000000, 296.500000, 8900.000000, 9709.375000, 0.210000, 325.000000, 328.500000, 8900.000000, 9709.375000
4301.137527, -17.648685, 0.616957, 293.000000, 296.500000, 9825.000000, 10634.375000, 0.210000, 329.000000, 332.500000, 9825.000000, 10634.375000
4967.388456, -20.489975, 0.632968, 293.000000, 296.500000, 10750.000000, 11559.375000, 0.210000, 333.000000, 336.500000, 10750.000000, 11559.375000
5674.518592, -23.537076, 0.649407, 293.000000, 296.500000, 11675.000000, 12484.375000, 0.210000, 337.000000, 340.500000, 11675.000000, 12484.375000
6419.091755, -26.788390, 0.666446, 293.000000, 296.500000, 12600.000000, 13409.375000, 0.210000, 341.000000, 344.500000, 12600.000000, 13409.375000
7195.921624, -30.241658, 0.684338, 293.000000, 296.500000, 13525.000000, 14334.375000, 0.210000, 345.000000, 348.500000, 13525.000000, 14334.375000
7945.676334, -33.657735, 0.702223, 293.000000, 296.500000, 14450.000000, 15143.750000, 0.210000, 349.000000, 352.000000, 14450.000000, 15143.750000
8655.457340, -37.002025, 0.720370, 293.000000, 296.500000, 15259.375000, 15953.125000, 0.210000, 352.500000, 355.500000, 15259.375000, 15953.125000
9358.642087, -40.490256, 0.740658, 293.000000, 296.500000, 16068.750000, 16762.500000, 0.210000, 356.000000, 359.000000, 16068.750000, 16762.500000
10026.847400, -44.114858, 0.764433, 293.000000, 296.500000, 16878.125000, 17571.875000, 0.210000, 359.500000, 362.500000, 16878.125000, 17571.875000
10601.200726, -47.862821, 0.794490, 293.000000, 296.500000, 17687.500000, 18381.250000, 0.210000, 363.000000, 366.000000, 17687.500000, 18381.250000
10934.776305, -51.708579, 0.837817, 293.000000, 296.500000, 18496.875000, 19190.625000, 0.210000, 366.500000, 369.500000, 18496.875000, 19190.625000
10518.352438, -55.588531, 0.918685, 293.000000, 296.500000, 19306.250000, 20000.000000, 0.210000, 370.000000, 373.000000, 19306.250000, 20000.000000
381.783982, -1.425126, 0.470485, 297.000000, 300.500000, 1500.000000, 2309.375000, 0.210000
624.613466, -2.370178, 0.487216, 297.000000, 300.500000, 2425.000000, 3234.375000, 0.210000
910.206971, -3.497673, 0.502796, 297.000000, 300.500000, 3350.000000, 4159.375000, 0.210000
1239.069018, -4.810179, 0.517800, 297.000000, 300.500000, 4275.000000, 5084.375000, 0.210000
1611.300423, -6.309034, 0.532495, 297.000000, 300.500000, 5200.000000, 6009.375000, 0.210000
2026.744953, -7.994938, 0.547037, 297.000000, 300.500000, 6125.000000, 6934.375000, 0.210000
2485.030863, -9.868196, 0.561531, 297.000000, 300.500000, 7050.000000, 7859.375000, 0.210000
2985.564052, -11.928816, 0.576066, 297.000000, 300.500000, 7975.000000, 8784.375000, 0.210000
3527.485978, -14.176550, 0.590720, 297.000000, 300.500000, 8900.000000, 9709.375000, 0.210000
4109.592807, -16.610896, 0.605580, 297.000000, 300.500000, 9825.000000, 10634.375000, 0.210000
4730.199414, -19.231069, 0.620745, 297.000000, 300.500000, 10750.000000, 11559.375000, 0.210000
5386.913754, -22.035933, 0.636344, 297.000000, 300.500000, 11675.000000, 12484.375000, 0.210000
6076.253014, -25.023887, 0.652550, 297.000000, 300.500000, 12600.000000, 13409.375000, 0.210000
6792.960490, -28.192673, 0.669622, 297.000000, 300.500000, 13525.000000, 14334.375000, 0.210000
7481.875837, -31.323073, 0.686752, 297.000000, 300.500000, 14450.000000, 15143.750000, 0.210000
8130.719256, -34.383789, 0.704214, 297.000000, 300.500000, 15259.375000, 15953.125000, 0.210000
8768.798998, -37.572274, 0.723847, 297.000000, 300.500000, 16068.750000, 16762.500000, 0.210000
9367.346704, -40.880960, 0.747014, 297.000000, 300.500000, 16878.125000, 17571.875000, 0.210000
9866.690872, -44.296835, 0.776549, 297.000000, 300.500000, 17687.500000, 18381.250000, 0.210000
10117.911839, -47.794334, 0.819533, 297.000000, 300.500000, 18496.875000, 19190.625000, 0.210000
9604.877348, -51.309856, 0.900568, 297.000000, 300.500000, 19306.250000, 20000.000000, 0.210000
390.886199, -1.432187, 0.466822, 301.000000, 304.500000, 1500.000000, 2309.375000, 0.210000
631.748881, -2.352470, 0.482813, 301.000000, 304.500000, 2425.000000, 3234.375000, 0.210000
911.184430, -3.436518, 0.497639, 301.000000, 304.500000, 3350.000000, 4159.375000, 0.210000
1229.704119, -4.686899, 0.511880, 301.000000, 304.500000, 4275.000000, 5084.375000, 0.210000
1587.410116, -6.104949, 0.525809, 301.000000, 304.500000, 5200.000000, 6009.375000, 0.210000
1984.144096, -7.691371, 0.539581, 301.000000, 304.500000, 6125.000000, 6934.375000, 0.210000
2419.529336, -9.446467, 0.553307, 301.000000, 304.500000, 7050.000000, 7859.375000, 0.210000
2892.963781, -11.370248, 0.567072, 301.000000, 304.500000, 7975.000000, 8784.375000, 0.210000
3403.577394, -13.462463, 0.580960, 301.000000, 304.500000, 8900.000000, 9709.375000, 0.210000
3950.150221, -15.722613, 0.595055, 301.000000, 304.500000, 9825.000000, 10634.375000, 0.210000
4530.974577, -18.149911, 0.609460, 301.000000, 304.500000, 10750.000000, 11559.375000, 0.210000
5143.626389, -20.743222, 0.624303, 301.000000, 304.500000, 11675.000000, 12484.375000, 0.210000
5784.576212, -23.500944, 0.639763, 301.000000, 304.500000, 12600.000000, 13409.375000, 0.210000
6448.496959, -26.420819, 0.656100, 301.000000, 304.500000, 13525.000000, 14334.375000, 0.210000
7083.889883, -29.301084, 0.672557, 301.000000, 304.500000, 14450.000000, 15143.750000, 0.210000
7679.020294, -32.113360, 0.689410, 301.000000, 304.500000, 15259.375000, 15953.125000, 0.210000
8259.595681, -35.039103, 0.708462, 301.000000, 304.500000, 16068.750000, 16762.500000, 0.210000
8796.462504, -38.070746, 0.731096, 301.000000, 304.500000, 16878.125000, 17571.875000, 0.210000
9229.150311, -41.195278, 0.760183, 301.000000, 304.500000, 17687.500000, 18381.250000, 0.210000
9406.745536, -44.387133, 0.802900, 301.000000, 304.500000, 18496.875000, 19190.625000, 0.210000
8806.205365, -47.582711, 0.884177, 301.000000, 304.500000, 19306.250000, 20000.000000, 0.210000
401.302817, -1.443826, 0.463216, 305.000000, 308.500000, 1500.000000, 2309.375000, 0.210000
641.483364, -2.344762, 0.478544, 305.000000, 308.500000, 2425.000000, 3234.375000, 0.210000
916.475618, -3.392902, 0.492691, 305.000000, 308.500000, 3350.000000, 4159.375000, 0.210000
1226.797608, -4.590815, 0.506246, 305.000000, 308.500000, 4275.000000, 5084.375000, 0.210000
1572.552851, -5.939838, 0.519483, 305.000000, 308.500000, 5200.000000, 6009.375000, 0.210000
1953.580930, -7.440672, 0.532563, 305.000000, 308.500000, 6125.000000, 6934.375000, 0.210000
2369.500146, -9.093621, 0.545595, 305.000000, 308.500000, 7050.000000, 7859.375000, 0.210000
2819.700488, -10.898693, 0.558668, 305.000000, 308.500000, 7975.000000, 8784.375000, 0.210000
3303.300424, -12.855641, 0.571865, 305.000000, 308.500000, 8900.000000, 9709.375000, 0.210000
3819.063884, -14.963963, 0.585272, 305.000000, 308.500000, 9825.000000, 10634.375000, 0.210000
4365.260618, -17.222873, 0.598992, 305.000000, 308.500000, 10750.000000, 11559.375000, 0.210000
4939.434526, -19.631235, 0.613157, 305.000000, 308.500000, 11675.000000, 12484.375000, 0.210000
5538.009532, -22.187449, 0.627947, 305.000000, 308.500000, 12600.000000, 13409.375000, 0.210000
6155.588166, -24.889256, 0.643625, 305.000000, 308.500000, 13525.000000, 14334.375000, 0.210000
6743.885447, -27.550203, 0.659479, 305.000000, 308.500000, 14450.000000, 15143.750000, 0.210000
7291.647350, -30.144500, 0.675789, 305.000000, 308.500000, 15259.375000, 15953.125000, 0.210000
7821.392099, -32.839586, 0.694328, 305.000000, 308.500000, 16068.750000, 16762.500000, 0.210000
8303.580971, -35.627893, 0.716496, 305.000000, 308.500000, 16878.125000, 17571.875000, 0.210000
8676.944566, -38.496410, 0.745202, 305.000000, 308.500000, 17687.500000, 18381.250000, 0.210000
8788.575412, -41.419571, 0.787718, 305.000000, 308.500000, 18496.875000, 19190.625000, 0.210000
8108.520140, -44.333776, 0.869303, 305.000000, 308.500000, 19306.250000, 20000.000000, 0.210000
412.919594, -1.459445, 0.459649, 309.000000, 312.500000, 1500.000000, 2309.375000, 0.210000
653.568151, -2.345748, 0.474382, 309.000000, 312.500000, 2425.000000, 3234.375000, 0.210000
925.644686, -3.364536, 0.487917, 309.000000, 312.500000, 3350.000000, 4159.375000, 0.210000
1229.673982, -4.518380, 0.500853, 309.000000, 312.500000, 4275.000000, 5084.375000, 0.210000
1565.760908, -5.808615, 0.513468, 309.000000, 312.500000, 5200.000000, 6009.375000, 0.210000
1933.742954, -7.235943, 0.525923, 309.000000, 312.500000, 6125.000000, 6934.375000, 0.210000
2333.233443, -8.800668, 0.538329, 309.000000, 312.500000, 7050.000000, 7859.375000, 0.210000
2763.614411, -10.502798, 0.550777, 309.000000, 312.500000, 7975.000000, 8784.375000, 0.210000
3223.992830, -12.342086, 0.563350, 309.000000, 312.500000, 8900.000000, 9709.375000, 0.210000
3713.116511, -14.318029, 0.576136, 309.000000, 312.500000, 9825.000000, 10634.375000, 0.210000
4229.232643, -16.429843, 0.589239, 309.000000, 312.500000, 10750.000000, 11559.375000, 0.210000
4769.853098, -18.676391, 0.602794, 309.000000, 312.500000, 11675.000000, 12484.375000, 0.210000
5331.355169, -21.056073, 0.616981, 309.000000, 312.500000, 12600.000000, 13409.375000, 0.210000
5908.271002, -23.566629, 0.632067, 309.000000, 312.500000, 13525.000000, 14334.375000, 0.210000
6455.134870, -26.035056, 0.647382, 309.000000, 312.500000, 14450.000000, 15143.750000, 0.210000
6961.116884, -28.437862, 0.663209, 309.000000, 312.500000, 15259.375000, 15953.125000, 0.210000
7445.908586, -30.930188, 0.681294, 309.000000, 312.500000, 16068.750000, 16762.500000, 0.210000
7879.586067, -33.504467, 0.703055, 309.000000, 312.500000, 16878.125000, 17571.875000, 0.210000
8200.080979, -36.147687, 0.731439, 309.000000, 312.500000, 17687.500000, 18381.250000, 0.210000
8252.491948, -38.834283, 0.773813, 309.000000, 312.500000, 18496.875000, 19190.625000, 0.210000
7499.955046, -41.500654, 0.855766, 309.000000, 312.500000, 19306.250000, 20000.000000, 0.210000
425.638113, -1.478535, 0.456107, 313.000000, 316.500000, 1500.000000, 2309.375000, 0.210000
667.788945, -2.354314, 0.470303, 313.000000, 316.500000, 2425.000000, 3234.375000, 0.210000
938.316177, -3.349467, 0.483288, 313.000000, 316.500000, 3350.000000, 4159.375000, 0.210000
1237.751346, -4.466563, 0.495665, 313.000000, 316.500000, 4275.000000, 5084.375000, 0.210000
1566.200669, -5.706938, 0.507717, 313.000000, 316.500000, 5200.000000, 6009.375000, 0.210000
1923.499547, -7.071295, 0.519607, 313.000000, 316.500000, 6125.000000, 6934.375000, 0.210000
2309.256324, -8.559936, 0.531448, 313.000000, 316.500000, 7050.000000, 7859.375000, 0.210000
2722.845082, -10.172870, 0.543330, 313.000000, 316.500000, 7975.000000, 8784.375000, 0.210000
3163.361298, -11.909850, 0.555340, 313.000000, 316.500000, 8900.000000, 9709.375000, 0.210000
3629.536664, -13.770374, 0.567565, 313.000000, 316.500000, 9825.000000, 10634.375000, 0.210000
4119.595808, -15.753655, 0.580112, 313.000000, 316.500000, 10750.000000, 11559.375000, 0.210000
4631.018574, -17.858559, 0.593115, 313.000000, 316.500000, 11675.000000, 12484.375000, 0.210000
5160.135621, -20.083485, 0.606760, 313.000000, 316.500000, 12600.000000, 13409.375000, 0.210000
5701.408716, -22.426173, 0.621315, 313.000000, 316.500000, 13525.000000, 14334.375000, 0.210000
6211.842810, -24.725443, 0.636148, 313.000000, 316.500000, 14450.000000, 15143.750000, 0.210000
6680.982425, -26.959852, 0.651544, 313.000000, 316.500000, 15259.375000, 15953.125000, 0.210000
7126.012868, -29.273743, 0.669226, 313.000000, 316.500000, 16068.750000, 16762.500000, 0.210000
7516.625051, -31.659547, 0.690633, 313.000000, 316.500000, 16878.125000, 17571.875000, 0.210000
7789.951676, -34.104254, 0.718747, 313.000000, 316.500000, 17687.500000, 18381.250000, 0.210000
7789.097464, -36.582298, 0.761032, 313.000000, 316.500000, 18496.875000, 19190.625000, 0.210000
6970.287930, -39.030078, 0.843405, 313.000000, 316.500000, 19306.250000, 20000.000000, 0.210000
439.373347, -1.500659, 0.452575, 317.000000, 320.500000, 1500.000000, 2309.375000, 0.210000
683.960617, -2.369508, 0.466290, 317.000000, 320.500000, 2425.000000, 3234.375000, 0.210000
954.165738, -3.346022, 0.478777, 317.000000, 320.500000, 3350.000000, 4159.375000, 0.210000
1250.527006, -4.432771, 0.490649, 317.000000, 320.500000, 4275.000000, 5084.375000, 0.210000
1573.151986, -5.631092, 0.502191, 317.000000, 320.500000, 5200.000000, 6009.375000, 0.210000
1921.873987, -6.941685, 0.513570, 317.000000, 320.500000, 6125.000000, 6934.375000, 0.210000
2296.296376, -8.364856, 0.524899, 317.000000, 320.500000, 7050.000000, 7859.375000, 0.210000
2695.785281, -9.900611, 0.536270, 317.000000, 320.500000, 7975.000000, 8784.375000, 0.210000
3119.424683, -11.548704, 0.547769, 317.000000, 320.500000, 8900.000000, 9709.375000, 0.210000
3565.930157, -13.308632, 0.559488, 317.000000, 320.500000, 9825.000000, 10634.375000, 0.210000
4033.503767, -15.179611, 0.571532, 317.000000, 320.500000, 10750.000000, 11559.375000, 0.210000
4519.593330, -17.160503, 0.584038, 317.000000, 320.500000, 11675.000000, 12484.375000, 0.210000
5020.482875, -19.249709, 0.597193, 317.000000, 320.500000, 12600.000000, 13409.375000, 0.210000
5530.563784, -21.444970, 0.611271, 317.000000, 320.500000, 13525.000000, 14334.375000, 0.210000
6009.002801, -23.595508, 0.625671, 317.000000, 320.500000, 14450.000000, 15143.750000, 0.210000
6445.675005, -25.681710, 0.640683, 317.000000, 320.500000, 15259.375000, 15953.125000, 0.210000
6855.543535, -27.838429, 0.658011, 317.000000, 320.500000, 16068.750000, 16762.500000, 0.210000
7207.914116, -30.058098, 0.679109, 317.000000, 320.500000, 16878.125000, 17571.875000, 0.210000
7439.120502, -32.327705, 0.707002, 317.000000, 320.500000, 17687.500000, 18381.250000, 0.210000
7390.273511, -34.621685, 0.749245, 317.000000, 320.500000, 18496.875000, 19190.625000, 0.210000
6510.688102, -36.876438, 0.832085, 317.000000, 320.500000, 19306.250000, 20000.000000, 0.210000
454.051639, -1.525443, 0.449042, 321.000000, 324.500000, 1500.000000, 2309.375000, 0.210000
701.922789, -2.390510, 0.462323, 321.000000, 324.500000, 2425.000000, 3234.375000, 0.210000
972.912392, -3.352764, 0.474360, 321.000000, 324.500000, 3350.000000, 4159.375000, 0.210000
1267.565496, -4.414777, 0.485775, 321.000000, 324.500000, 4275.000000, 5084.375000, 0.210000
1585.991018, -5.577883, 0.496857, 321.000000, 324.500000, 5200.000000, 6009.375000, 0.210000
1928.020174, -6.842785, 0.507772, 321.000000, 324.500000, 6125.000000, 6934.375000, 0.210000
2293.251356, -8.209785, 0.518636, 321.000000, 324.500000, 7050.000000, 7859.375000, 0.210000
2681.042734, -9.678894, 0.529544, 321.000000, 324.500000, 7975.000000, 8784.375000, 0.210000
3090.466797, -11.249862, 0.540582, 321.000000, 324.500000, 8900.000000, 9709.375000, 0.210000
3520.222999, -12.922188, 0.551841, 321.000000, 324.500000, 9825.000000, 10634.375000, 0.210000
3968.490843, -14.695087, 0.563430, 321.000000, 324.500000, 10750.000000, 11559.375000, 0.210000
4432.686120, -16.567422, 0.575487, 321.000000, 324.500000, 11675.000000, 12484.375000, 0.210000
4909.046225, -18.537593, 0.588201, 321.000000, 324.500000, 12600.000000, 13409.375000, 0.210000
5391.892157, -20.603341, 0.601849, 321.000000, 324.500000, 13525.000000, 14334.375000, 0.210000
5842.277942, -22.623048, 0.615861, 321.000000, 324.500000, 14450.000000, 15143.750000, 0.210000
6250.370459, -24.578736, 0.630531, 321.000000, 324.500000, 15259.375000, 15953.125000, 0.210000
6629.163205, -26.596920, 0.647546, 321.000000, 324.500000, 16068.750000, 16762.500000, 0.210000
6947.576726, -28.670032, 0.668379, 321.000000, 324.500000, 16878.125000, 17571.875000, 0.210000
7141.145824, -30.785060, 0.696091, 321.000000, 324.500000, 17687.500000, 18381.250000, 0.210000
7048.987416, -32.916439, 0.738333, 321.000000, 324.500000, 18496.875000, 19190.625000, 0.210000
6113.505901, -35.000569, 0.821683, 321.000000, 324.500000, 19306.250000, 20000.000000, 0.210000
469.609008, -1.552562, 0.445499, 325.000000, 328.500000, 1500.000000, 2309.375000, 0.210000
721.536163, -2.416614, 0.458388, 325.000000, 328.500000, 2425.000000, 3234.375000, 0.210000
994.312086, -3.368458, 0.470019, 325.000000, 328.500000, 3350.000000, 4159.375000, 0.210000
1288.488582, -4.410662, 0.481020, 325.000000, 328.500000, 4275.000000, 5084.375000, 0.210000
1604.175916, -5.544564, 0.491682, 325.000000, 328.500000, 5200.000000, 6009.375000, 0.210000
1941.203213, -6.770865, 0.502177, 325.000000, 328.500000, 6125.000000, 6934.375000, 0.210000
2299.163888, -8.089868, 0.512621, 325.000000, 328.500000, 7050.000000, 7859.375000, 0.210000
2677.408156, -9.501582, 0.523108, 325.000000, 328.500000, 7975.000000, 8784.375000, 0.210000
3074.997010, -11.005760, 0.533726, 325.000000, 328.500000, 8900.000000, 9709.375000, 0.210000
3490.613788, -12.601900, 0.544569, 325.000000, 328.500000, 9825.000000, 10634.375000, 0.210000
3922.415429, -14.289215, 0.555746, 325.000000, 328.500000, 10750.000000, 11559.375000, 0.210000
4367.785697, -16.066570, 0.567396, 325.000000, 328.500000, 11675.000000, 12484.375000, 0.210000
4822.915355, -17.932365, 0.579712, 325.000000, 328.500000, 12600.000000, 13409.375000, 0.210000
5282.055020, -19.884341, 0.592974, 325.000000, 328.500000, 13525.000000, 14334.375000, 0.210000
5707.901347, -21.788943, 0.606639, 325.000000, 328.500000, 14450.000000, 15143.750000, 0.210000
6090.878673, -23.629664, 0.621004, 325.000000, 328.500000, 15259.375000, 15953.125000, 0.210000
6442.236009, -25.525686, 0.637743, 325.000000, 328.500000, 16068.750000, 16762.500000, 0.210000
6730.508717, -27.469442, 0.658348, 325.000000, 328.500000, 16878.125000, 17571.875000, 0.210000
6890.432652, -29.447921, 0.685918, 325.000000, 328.500000, 17687.500000, 18381.250000, 0.210000
6759.130825, -31.435556, 0.728197, 325.000000, 328.500000, 18496.875000, 19190.625000, 0.210000
5772.097080, -33.368747, 0.812093, 325.000000, 328.500000, 19306.250000, 20000.000000, 0.210000
485.989735, -1.581739, 0.441935, 329.000000, 332.500000, 1500.000000, 2309.375000, 0.210000
742.679430, -2.447213, 0.454471, 329.000000, 332.500000, 2425.000000, 3234.375000, 0.210000
1018.152295, -3.392033, 0.465734, 329.000000, 332.500000, 3350.000000, 4159.375000, 0.210000
1312.966890, -4.418771, 0.476359, 329.000000, 332.500000, 4275.000000, 5084.375000, 0.210000
1627.234830, -5.528761, 0.486642, 329.000000, 332.500000, 5200.000000, 6009.375000, 0.210000
1960.783148, -6.722706, 0.496755, 329.000000, 332.500000, 6125.000000, 6934.375000, 0.210000
2313.200281, -8.000909, 0.506816, 329.000000, 332.500000, 7050.000000, 7859.375000, 0.210000
2683.828490, -9.363378, 0.516921, 329.000000, 332.500000, 7975.000000, 8784.375000, 0.210000
