Coefficients constant [W],Coefficients T [W/K],Coefficients j [W/(A/m^2)],T_start [K],T_end [K],j_start [A/m^2],j_end [A/m^2],Area [m^2],Temperature starts,Temperature ends,Current density starts,Current density ends
372.027151, -0.384024, 0.276130, 1073.000000, 1081.000000, 2000.000000, 2320.000000, 0.210000, 1073.000000, 1081.000000, 2000.000000, 2320.000000
482.901593, -0.498545, 0.281489, 1073.000000, 1081.000000, 2340.000000, 2640.000000, 0.210000, 1081.500000, 1089.000000, 2340.000000, 2640.000000
602.879977, -0.622477, 0.286583, 1073.000000, 1081.000000, 2660.000000, 2960.000000, 0.210000, 1089.500000, 1097.000000, 2660.000000, 2960.000000
734.516031, -0.758489, 0.291583, 1073.000000, 1081.000000, 2980.000000, 3280.000000, 0.210000, 1097.500000, 1105.000000, 2980.000000, 3280.000000
877.299350, -0.906067, 0.296495, 1073.000000, 1081.000000, 3300.000000, 3600.000000, 0.210000, 1105.500000, 1113.000000, 3300.000000, 3600.000000
1030.747381, -1.064724, 0.301322, 1073.000000, 1081.000000, 3620.000000, 3920.000000, 0.210000, 1113.500000, 1121.000000, 3620.000000, 3920.000000
1194.413204, -1.234011, 0.306070, 1073.000000, 1081.000000, 3940.000000, 4240.000000, 0.210000, 1121.500000, 1129.000000, 3940.000000, 4240.000000
1367.890086, -1.413517, 0.310741, 1073.000000, 1081.000000, 4260.000000, 4560.000000, 0.210000, 1129.500000, 1137.000000, 4260.000000, 4560.000000
1550.813405, -1.602876, 0.315340, 1073.000000, 1081.000000, 4580.000000, 4880.000000, 0.210000, 1137.500000, 1145.000000, 4580.000000, 4880.000000
1742.860536, -1.801762, 0.319871, 1073.000000, 1081.000000, 4900.000000, 5200.000000, 0.210000, 1145.500000, 1153.000000, 4900.000000, 5200.000000
1943.749256, -2.009891, 0.324337, 1073.000000, 1081.000000, 5220.000000, 5520.000000, 0.210000, 1153.500000, 1161.000000, 5220.000000, 5520.000000
2153.235169, -2.227016, 0.328742, 1073.000000, 1081.000000, 5540.000000, 5840.000000, 0.210000, 1161.500000, 1169.000000, 5540.000000, 5840.000000
2371.108533, -2.452926, 0.333089, 1073.000000, 1081.000000, 5860.000000, 6160.000000, 0.210000, 1169.500000, 1177.000000, 5860.000000, 6160.000000
2597.190824, -2.687441, 0.337383, 1073.000000, 1081.000000, 6180.000000, 6480.000000, 0.210000, 1177.500000, 1185.000000, 6180.000000, 6480.000000
2831.331234, -2.930409, 0.341626, 1073.000000, 1081.000000, 6500.000000, 6800.000000, 0.210000, 1185.500000, 1193.000000, 6500.000000, 6800.000000
3073.403289, -3.181702, 0.345821, 1073.000000, 1081.000000, 6820.000000, 7120.000000, 0.210000, 1193.500000, 1201.000000, 6820.000000, 7120.000000
3323.301670, -3.441213, 0.349972, 1073.000000, 1081.000000, 7140.000000, 7440.000000, 0.210000, 1201.500000, 1209.000000, 7140.000000, 7440.000000
3580.939293, -3.708855, 0.354081, 1073.000000, 1081.000000, 7460.000000, 7760.000000, 0.210000, 1209.500000, 1217.000000, 7460.000000, 7760.000000
3846.244689, -3.984555, 0.358151, 1073.000000, 1081.000000, 7780.000000, 8080.000000, 0.210000, 1217.500000, 1225.000000, 7780.000000, 8080.000000
4119.159680, -4.268255, 0.362185, 1073.000000, 1081.000000, 8100.000000, 8400.000000, 0.210000, 1225.500000, 1233.000000, 8100.000000, 8400.000000
4399.637332, -4.559908, 0.366184, 1073.000000, 1081.000000, 8420.000000, 8720.000000, 0.210000, 1233.500000, 1241.000000, 8420.000000, 8720.000000
4687.640185, -4.859475, 0.370151, 1073.000000, 1081.000000, 8740.000000, 9040.000000, 0.210000, 1241.500000, 1249.000000, 8740.000000, 9040.000000
4983.138725, -5.166926, 0.374088, 1073.000000, 1081.000000, 9060.000000, 9360.000000, 0.210000, 1249.500000, 1257.000000, 9060.000000, 9360.000000
5286.110068, -5.482239, 0.377996, 1073.000000, 1081.000000, 9380.000000, 9680.000000, 0.210000, 1257.500000, 1265.000000, 9380.000000, 9680.000000
5596.536846, -5.805396, 0.381878, 1073.000000, 1081.000000, 9700.000000, 10000.000000, 0.210000, 1265.500000, 1273.000000, 9700.000000, 10000.000000
344.101131, -0.353033, 0.273547, 1081.500000, 1089.000000, 2000.000000, 2320.000000, 0.210000
446.686115, -0.458335, 0.278575, 1081.500000, 1089.000000, 2340.000000, 2640.000000, 0.210000
557.913574, -0.572508, 0.283360, 1081.500000, 1089.000000, 2660.000000, 2960.000000, 0.210000
680.198569, -0.698059, 0.288064, 1081.500000, 1089.000000, 2980.000000, 3280.000000, 0.210000
813.112282, -0.834558, 0.292691, 1081.500000, 1089.000000, 3300.000000, 3600.000000, 0.210000
956.238550, -0.981590, 0.297246, 1081.500000, 1089.000000, 3620.000000, 3920.000000, 0.210000
1109.181472, -1.138759, 0.301731, 1081.500000, 1089.000000, 3940.000000, 4240.000000, 0.210000
1271.570782, -1.305694, 0.306149, 1081.500000, 1089.000000, 4260.000000, 4560.000000, 0.210000
1443.065250, -1.482054, 0.310504, 1081.500000, 1089.000000, 4580.000000, 4880.000000, 0.210000
1623.354398, -1.667528, 0.314798, 1081.500000, 1089.000000, 4900.000000, 5200.000000, 0.210000
1812.158892, -1.861837, 0.319034, 1081.500000, 1089.000000, 5220.000000, 5520.000000, 0.210000
2009.229887, -2.064732, 0.323215, 1081.500000, 1089.000000, 5540.000000, 5840.000000, 0.210000
2214.347649, -2.275994, 0.327344, 1081.500000, 1089.000000, 5860.000000, 6160.000000, 0.210000
2427.319672, -2.495429, 0.331424, 1081.500000, 1089.000000, 6180.000000, 6480.000000, 0.210000
2647.978512, -2.722870, 0.335457, 1081.500000, 1089.000000, 6500.000000, 6800.000000, 0.210000
2876.179470, -2.958172, 0.339445, 1081.500000, 1089.000000, 6820.000000, 7120.000000, 0.210000
3111.798274, -3.201210, 0.343392, 1081.500000, 1089.000000, 7140.000000, 7440.000000, 0.210000
3354.728811, -3.451879, 0.347299, 1081.500000, 1089.000000, 7460.000000, 7760.000000, 0.210000
3604.880990, -3.710089, 0.351169, 1081.500000, 1089.000000, 7780.000000, 8080.000000, 0.210000
3862.178750, -3.975762, 0.355004, 1081.500000, 1089.000000, 8100.000000, 8400.000000, 0.210000
4126.558250, -4.248836, 0.358806, 1081.500000, 1089.000000, 8420.000000, 8720.000000, 0.210000
4397.966234, -4.529257, 0.362577, 1081.500000, 1089.000000, 8740.000000, 9040.000000, 0.210000
4676.358568, -4.816980, 0.366318, 1081.500000, 1089.000000, 9060.000000, 9360.000000, 0.210000
4961.698952, -5.111970, 0.370032, 1081.500000, 1089.000000, 9380.000000, 9680.000000, 0.210000
5253.957783, -5.414197, 0.373720, 1081.500000, 1089.000000, 9700.000000, 10000.000000, 0.210000
319.382742, -0.325772, 0.271245, 1089.500000, 1097.000000, 2000.000000, 2320.000000, 0.210000
414.499804, -0.422835, 0.275972, 1089.500000, 1097.000000, 2340.000000, 2640.000000, 0.210000
517.789636, -0.528231, 0.280476, 1089.500000, 1097.000000, 2660.000000, 2960.000000, 0.210000
631.538969, -0.644320, 0.284909, 1089.500000, 1097.000000, 2980.000000, 3280.000000, 0.210000
755.392404, -0.770747, 0.289276, 1089.500000, 1097.000000, 3300.000000, 3600.000000, 0.210000
888.997330, -0.907163, 0.293578, 1089.500000, 1097.000000, 3620.000000, 3920.000000, 0.210000
1032.010632, -1.053226, 0.297820, 1089.500000, 1097.000000, 3940.000000, 4240.000000, 0.210000
1184.103903, -1.208610, 0.302004, 1089.500000, 1097.000000, 4260.000000, 4560.000000, 0.210000
1344.967286, -1.373008, 0.306132, 1089.500000, 1097.000000, 4580.000000, 4880.000000, 0.210000
1514.312050, -1.546133, 0.310207, 1089.500000, 1097.000000, 4900.000000, 5200.000000, 0.210000
1691.872100, -1.727720, 0.314230, 1089.500000, 1097.000000, 5220.000000, 5520.000000, 0.210000
1877.404573, -1.917528, 0.318204, 1089.500000, 1097.000000, 5540.000000, 5840.000000, 0.210000
2070.689720, -2.115339, 0.322131, 1089.500000, 1097.000000, 5860.000000, 6160.000000, 0.210000
2271.530244, -2.320957, 0.326013, 1089.500000, 1097.000000, 6180.000000, 6480.000000, 0.210000
2479.750237, -2.534208, 0.329853, 1089.500000, 1097.000000, 6500.000000, 6800.000000, 0.210000
2695.193845, -2.754936, 0.333651, 1089.500000, 1097.000000, 6820.000000, 7120.000000, 0.210000
2917.723783, -2.983005, 0.337411, 1089.500000, 1097.000000, 7140.000000, 7440.000000, 0.210000
3147.219764, -3.218295, 0.341134, 1089.500000, 1097.000000, 7460.000000, 7760.000000, 0.210000
3383.576920, -3.460704, 0.344822, 1089.500000, 1097.000000, 7780.000000, 8080.000000, 0.210000
3626.704258, -3.710139, 0.348477, 1089.500000, 1097.000000, 8100.000000, 8400.000000, 0.210000
3876.523186, -3.966523, 0.352101, 1089.500000, 1097.000000, 8420.000000, 8720.000000, 0.210000
4132.966131, -4.229789, 0.355694, 1089.500000, 1097.000000, 8740.000000, 9040.000000, 0.210000
4395.975254, -4.499880, 0.359260, 1089.500000, 1097.000000, 9060.000000, 9360.000000, 0.210000
4665.501281, -4.776747, 0.362799, 1089.500000, 1097.000000, 9380.000000, 9680.000000, 0.210000
4941.502441, -5.060348, 0.366312, 1089.500000, 1097.000000, 9700.000000, 10000.000000, 0.210000
296.806800, -0.301019, 0.269123, 1097.500000, 1105.000000, 2000.000000, 2320.000000, 0.210000
385.001880, -0.390502, 0.273572, 1097.500000, 1105.000000, 2340.000000, 2640.000000, 0.210000
480.890174, -0.487780, 0.277813, 1097.500000, 1105.000000, 2660.000000, 2960.000000, 0.210000
586.634481, -0.595070, 0.281991, 1097.500000, 1105.000000, 2980.000000, 3280.000000, 0.210000
701.944774, -0.712084, 0.286111, 1097.500000, 1105.000000, 3300.000000, 3600.000000, 0.210000
826.527682, -0.838533, 0.290175, 1097.500000, 1105.000000, 3620.000000, 3920.000000, 0.210000
960.092022, -0.974130, 0.294186, 1097.500000, 1105.000000, 3940.000000, 4240.000000, 0.210000
1102.353401, -1.118594, 0.298146, 1097.500000, 1105.000000, 4260.000000, 4560.000000, 0.210000
1253.037885, -1.271656, 0.302057, 1097.500000, 1105.000000, 4580.000000, 4880.000000, 0.210000
1411.884810, -1.433057, 0.305922, 1097.500000, 1105.000000, 4900.000000, 5200.000000, 0.210000
1578.648782, -1.602557, 0.309741, 1097.500000, 1105.000000, 5220.000000, 5520.000000, 0.210000
1753.100973, -1.779929, 0.313517, 1097.500000, 1105.000000, 5540.000000, 5840.000000, 0.210000
1935.029811, -1.964964, 0.317251, 1097.500000, 1105.000000, 5860.000000, 6160.000000, 0.210000
2124.241162, -2.157472, 0.320944, 1097.500000, 1105.000000, 6180.000000, 6480.000000, 0.210000
2320.558115, -2.357277, 0.324599, 1097.500000, 1105.000000, 6500.000000, 6800.000000, 0.210000
2523.820445, -2.564222, 0.328216, 1097.500000, 1105.000000, 6820.000000, 7120.000000, 0.210000
2733.883859, -2.778164, 0.331799, 1097.500000, 1105.000000, 7140.000000, 7440.000000, 0.210000
2950.619079, -2.998977, 0.335347, 1097.500000, 1105.000000, 7460.000000, 7760.000000, 0.210000
3173.910824, -3.226546, 0.338863, 1097.500000, 1105.000000, 7780.000000, 8080.000000, 0.210000
3403.656746, -3.460770, 0.342348, 1097.500000, 1105.000000, 8100.000000, 8400.000000, 0.210000
3639.766353, -3.701561, 0.345804, 1097.500000, 1105.000000, 8420.000000, 8720.000000, 0.210000
3882.159942, -3.948840, 0.349231, 1097.500000, 1105.000000, 8740.000000, 9040.000000, 0.210000
4130.767578, -4.202537, 0.352632, 1097.500000, 1105.000000, 9060.000000, 9360.000000, 0.210000
4385.528115, -4.462594, 0.356008, 1097.500000, 1105.000000, 9380.000000, 9680.000000, 0.210000
4646.388280, -4.728958, 0.359359, 1097.500000, 1105.000000, 9700.000000, 10000.000000, 0.210000
276.203280, -0.278555, 0.267168, 1105.500000, 1113.000000, 2000.000000, 2320.000000, 0.210000
358.001446, -0.361083, 0.271357, 1105.500000, 1113.000000, 2340.000000, 2640.000000, 0.210000
447.013533, -0.450875, 0.275354, 1105.500000, 1113.000000, 2660.000000, 2960.000000, 0.210000
545.282296, -0.550012, 0.279293, 1105.500000, 1113.000000, 2980.000000, 3280.000000, 0.210000
652.574105, -0.658265, 0.283180, 1105.500000, 1113.000000, 3300.000000, 3600.000000, 0.210000
768.648551, -0.775397, 0.287019, 1105.500000, 1113.000000, 3620.000000, 3920.000000, 0.210000
893.262833, -0.901172, 0.290810, 1105.500000, 1113.000000, 3940.000000, 4240.000000, 0.210000
1026.175568, -1.035352, 0.294558, 1105.500000, 1113.000000, 4260.000000, 4560.000000, 0.210000
1167.150006, -1.177704, 0.298263, 1105.500000, 1113.000000, 4580.000000, 4880.000000, 0.210000
1315.956670, -1.328006, 0.301927, 1105.500000, 1113.000000, 4900.000000, 5200.000000, 0.210000
1472.375440, -1.486040, 0.305551, 1105.500000, 1113.000000, 5220.000000, 5520.000000, 0.210000
1636.197128, -1.651603, 0.309137, 1105.500000, 1113.000000, 5540.000000, 5840.000000, 0.210000
1807.224578, -1.824500, 0.312685, 1105.500000, 1113.000000, 5860.000000, 6160.000000, 0.210000
1985.273359, -2.004551, 0.316198, 1105.500000, 1113.000000, 6180.000000, 6480.000000, 0.210000
2170.172103, -2.191589, 0.319676, 1105.500000, 1113.000000, 6500.000000, 6800.000000, 0.210000
2361.762553, -2.385459, 0.323121, 1105.500000, 1113.000000, 6820.000000, 7120.000000, 0.210000
2559.899366, -2.586018, 0.326534, 1105.500000, 1113.000000, 7140.000000, 7440.000000, 0.210000
2764.449734, -2.793136, 0.329916, 1105.500000, 1113.000000, 7460.000000, 7760.000000, 0.210000
2975.292863, -3.006696, 0.333269, 1105.500000, 1113.000000, 7780.000000, 8080.000000, 0.210000
3192.319353, -3.226589, 0.336593, 1105.500000, 1113.000000, 8100.000000, 8400.000000, 0.210000
3415.430508, -3.452721, 0.339889, 1105.500000, 1113.000000, 8420.000000, 8720.000000, 0.210000
3644.537617, -3.685003, 0.343160, 1105.500000, 1113.000000, 8740.000000, 9040.000000, 0.210000
3879.561212, -3.923359, 0.346406, 1105.500000, 1113.000000, 9060.000000, 9360.000000, 0.210000
4120.430330, -4.167718, 0.349627, 1105.500000, 1113.000000, 9380.000000, 9680.000000, 0.210000
4367.081798, -4.418020, 0.352826, 1105.500000, 1113.000000, 9700.000000, 10000.000000, 0.210000
257.407872, -0.258172, 0.265364, 1113.500000, 1121.000000, 2000.000000, 2320.000000, 0.210000
333.308102, -0.334330, 0.269314, 1113.500000, 1121.000000, 2340.000000, 2640.000000, 0.210000
415.951311, -0.417238, 0.273082, 1113.500000, 1121.000000, 2660.000000, 2960.000000, 0.210000
507.264185, -0.508846, 0.276799, 1113.500000, 1121.000000, 2980.000000, 3280.000000, 0.210000
607.060590, -0.608974, 0.280468, 1113.500000, 1121.000000, 3300.000000, 3600.000000, 0.210000
715.146007, -0.717431, 0.284094, 1113.500000, 1121.000000, 3620.000000, 3920.000000, 0.210000
831.320930, -0.834023, 0.287679, 1113.500000, 1121.000000, 3940.000000, 4240.000000, 0.210000
955.383897, -0.958554, 0.291225, 1113.500000, 1121.000000, 4260.000000, 4560.000000, 0.210000
1087.134148, -1.090829, 0.294733, 1113.500000, 1121.000000, 4580.000000, 4880.000000, 0.210000
1226.373915, -1.230654, 0.298206, 1113.500000, 1121.000000, 4900.000000, 5200.000000, 0.210000
1372.910342, -1.377843, 0.301644, 1113.500000, 1121.000000, 5220.000000, 5520.000000, 0.210000
1526.557058, -1.532214, 0.305048, 1113.500000, 1121.000000, 5540.000000, 5840.000000, 0.210000
1687.135413, -1.693594, 0.308420, 1113.500000, 1121.000000, 5860.000000, 6160.000000, 0.210000
1854.475401, -1.861817, 0.311759, 1113.500000, 1121.000000, 6180.000000, 6480.000000, 0.210000
2028.416313, -2.036726, 0.315069, 1113.500000, 1121.000000, 6500.000000, 6800.000000, 0.210000
2208.807133, -2.218176, 0.318348, 1113.500000, 1121.000000, 6820.000000, 7120.000000, 0.210000
2395.506731, -2.406028, 0.321599, 1113.500000, 1121.000000, 7140.000000, 7440.000000, 0.210000
2588.383870, -2.600156, 0.324822, 1113.500000, 1121.000000, 7460.000000, 7760.000000, 0.210000
2787.317070, -2.800441, 0.328019, 1113.500000, 1121.000000, 7780.000000, 8080.000000, 0.210000
2992.194352, -3.006775, 0.331189, 1113.500000, 1121.000000, 8100.000000, 8400.000000, 0.210000
3202.912890, -3.219057, 0.334335, 1113.500000, 1121.000000, 8420.000000, 8720.000000, 0.210000
3419.378601, -3.437197, 0.337457, 1113.500000, 1121.000000, 8740.000000, 9040.000000, 0.210000
3641.505681, -3.661112, 0.340555, 1113.500000, 1121.000000, 9060.000000, 9360.000000, 0.210000
3869.216112, -3.890725, 0.343632, 1113.500000, 1121.000000, 9380.000000, 9680.000000, 0.210000
4102.439164, -4.125968, 0.346687, 1113.500000, 1121.000000, 9700.000000, 10000.000000, 0.210000
240.264471, -0.239674, 0.263700, 1121.500000, 1129.000000, 2000.000000, 2320.000000, 0.210000
310.736375, -0.310008, 0.267427, 1121.500000, 1129.000000, 2340.000000, 2640.000000, 0.210000
387.494745, -0.386598, 0.270984, 1121.500000, 1129.000000, 2660.000000, 2960.000000, 0.210000
472.354537, -0.471272, 0.274493, 1121.500000, 1129.000000, 2980.000000, 3280.000000, 0.210000
565.168883, -0.563888, 0.277958, 1121.500000, 1129.000000, 3300.000000, 3600.000000, 0.210000
665.782084, -0.664294, 0.281385, 1121.500000, 1129.000000, 3620.000000, 3920.000000, 0.210000
774.032218, -0.772334, 0.284775, 1121.500000, 1129.000000, 3940.000000, 4240.000000, 0.210000
889.753489, -0.887847, 0.288130, 1121.500000, 1129.000000, 4260.000000, 4560.000000, 0.210000
1012.778347, -1.010672, 0.291453, 1121.500000, 1129.000000, 4580.000000, 4880.000000, 0.210000
1142.939367, -1.140646, 0.294744, 1121.500000, 1129.000000, 4900.000000, 5200.000000, 0.210000
1280.070905, -1.277610, 0.298005, 1121.500000, 1129.000000, 5220.000000, 5520.000000, 0.210000
1424.010508, -1.421406, 0.301236, 1121.500000, 1129.000000, 5540.000000, 5840.000000, 0.210000
1574.600111, -1.571883, 0.304438, 1121.500000, 1129.000000, 5860.000000, 6160.000000, 0.210000
1731.687003, -1.728891, 0.307613, 1121.500000, 1129.000000, 6180.000000, 6480.000000, 0.210000
1895.124600, -1.892291, 0.310760, 1121.500000, 1129.000000, 6500.000000, 6800.000000, 0.210000
2064.773017, -2.061946, 0.313882, 1121.500000, 1129.000000, 6820.000000, 7120.000000, 0.210000
2240.499484, -2.237729, 0.316978, 1121.500000, 1129.000000, 7140.000000, 7440.000000, 0.210000
2422.178593, -2.419518, 0.320049, 1121.500000, 1129.000000, 7460.000000, 7760.000000, 0.210000
2609.692430, -2.607201, 0.323096, 1121.500000, 1129.000000, 7780.000000, 8080.000000, 0.210000
2802.930577, -2.800670, 0.326120, 1121.500000, 1129.000000, 8100.000000, 8400.000000, 0.210000
3001.790037, -2.999826, 0.329121, 1121.500000, 1129.000000, 8420.000000, 8720.000000, 0.210000
3206.175062, -3.204578, 0.332101, 1121.500000, 1129.000000, 8740.000000, 9040.000000, 0.210000
3415.996941, -3.414839, 0.335059, 1121.500000, 1129.000000, 9060.000000, 9360.000000, 0.210000
3631.173718, -3.630530, 0.337998, 1121.500000, 1129.000000, 9380.000000, 9680.000000, 0.210000
3851.629894, -3.851580, 0.340916, 1121.500000, 1129.000000, 9700.000000, 10000.000000, 0.210000
224.626693, -0.222884, 0.262162, 1129.500000, 1137.000000, 2000.000000, 2320.000000, 0.210000
290.108829, -0.287896, 0.265684, 1129.500000, 1137.000000, 2340.000000, 2640.000000, 0.210000
361.439625, -0.358698, 0.269044, 1129.500000, 1137.000000, 2660.000000, 2960.000000, 0.210000
440.327071, -0.436998, 0.272360, 1129.500000, 1137.000000, 2980.000000, 3280.000000, 0.210000
526.656306, -0.522686, 0.275636, 1129.500000, 1137.000000, 3300.000000, 3600.000000, 0.210000
620.303875, -0.615643, 0.278876, 1129.500000, 1137.000000, 3620.000000, 3920.000000, 0.210000
721.139728, -0.715743, 0.282083, 1129.500000, 1137.000000, 3940.000000, 4240.000000, 0.210000
829.029022, -0.822858, 0.285259, 1129.500000, 1137.000000, 4260.000000, 4560.000000, 0.210000
943.833773, -0.936854, 0.288406, 1129.500000, 1137.000000, 4580.000000, 4880.000000, 0.210000
1065.414354, -1.057598, 0.291525, 1129.500000, 1137.000000, 4900.000000, 5200.000000, 0.210000
1193.630842, -1.184955, 0.294618, 1129.500000, 1137.000000, 5220.000000, 5520.000000, 0.210000
1328.344222, -1.318791, 0.297684, 1129.500000, 1137.000000, 5540.000000, 5840.000000, 0.210000
1469.417439, -1.458976, 0.300725, 1129.500000, 1137.000000, 5860.000000, 6160.000000, 0.210000
1616.716300, -1.605380, 0.303742, 1129.500000, 1137.000000, 6180.000000, 6480.000000, 0.210000
1770.110240, -1.757879, 0.306736, 1129.500000, 1137.000000, 6500.000000, 6800.000000, 0.210000
1929.472950, -1.916351, 0.309706, 1129.500000, 1137.000000, 6820.000000, 7120.000000, 0.210000
2094.682876, -2.080680, 0.312653, 1129.500000, 1137.000000, 7140.000000, 7440.000000, 0.210000
2265.623601, -2.250754, 0.315579, 1129.500000, 1137.000000, 7460.000000, 7760.000000, 0.210000
2442.184122, -2.426468, 0.318483, 1129.500000, 1137.000000, 7780.000000, 8080.000000, 0.210000
2624.259028, -2.607719, 0.321367, 1129.500000, 1137.000000, 8100.000000, 8400.000000, 0.210000
