Coefficients constant [W],Coefficients T [W/K],Coefficients j [W/(A/m^2)],T_start [K],T_end [K],j_start [A/m^2],j_end [A/m^2],Area [m^2],Temperature starts,Temperature ends,Current density starts,Current density ends
367.291636, -0.379310, 0.275963, 1073.000000, 1080.000000, 2000.000000, 2280.000000, 0.210000, 1073.000000, 1080.000000, 2000.000000, 2280.000000
467.356924, -0.482687, 0.280863, 1073.000000, 1080.000000, 2300.000000, 2580.000000, 0.210000, 1080.500000, 1087.500000, 2300.000000, 2580.000000
578.241587, -0.597264, 0.285674, 1073.000000, 1080.000000, 2600.000000, 2880.000000, 0.210000, 1088.000000, 1095.000000, 2600.000000, 2880.000000
699.504960, -0.722598, 0.290400, 1073.000000, 1080.000000, 2900.000000, 3180.000000, 0.210000, 1095.500000, 1102.500000, 2900.000000, 3180.000000
830.717528, -0.858255, 0.295047, 1073.000000, 1080.000000, 3200.000000, 3480.000000, 0.210000, 1103.000000, 1110.000000, 3200.000000, 3480.000000
971.469999, -1.003822, 0.299618, 1073.000000, 1080.000000, 3500.000000, 3780.000000, 0.210000, 1110.500000, 1117.500000, 3500.000000, 3780.000000
1121.379731, -1.158916, 0.304117, 1073.000000, 1080.000000, 3800.000000, 4080.000000, 0.210000, 1118.000000, 1125.000000, 3800.000000, 4080.000000
1280.094801, -1.323180, 0.308546, 1073.000000, 1080.000000, 4100.000000, 4380.000000, 0.210000, 1125.500000, 1132.500000, 4100.000000, 4380.000000
1447.296087, -1.496293, 0.312910, 1073.000000, 1080.000000, 4400.000000, 4680.000000, 0.210000, 1133.000000, 1140.000000, 4400.000000, 4680.000000
1622.697757, -1.677967, 0.317211, 1073.000000, 1080.000000, 4700.000000, 4980.000000, 0.210000, 1140.500000, 1147.500000, 4700.000000, 4980.000000
1806.046555, -1.867947, 0.321453, 1073.000000, 1080.000000, 5000.000000, 5280.000000, 0.210000, 1148.000000, 1155.000000, 5000.000000, 5280.000000
1997.120232, -2.066008, 0.325638, 1073.000000, 1080.000000, 5300.000000, 5580.000000, 0.210000, 1155.500000, 1162.500000, 5300.000000, 5580.000000
2195.725410, -2.271956, 0.329770, 1073.000000, 1080.000000, 5600.000000, 5880.000000, 0.210000, 1163.000000, 1170.000000, 5600.000000, 5880.000000
2401.695135, -2.485621, 0.333852, 1073.000000, 1080.000000, 5900.000000, 6180.000000, 0.210000, 1170.500000, 1177.500000, 5900.000000, 6180.000000
2614.886289, -2.706861, 0.337886, 1073.000000, 1080.000000, 6200.000000, 6480.000000, 0.210000, 1178.000000, 1185.000000, 6200.000000, 6480.000000
2835.177001, -2.935550, 0.341876, 1073.000000, 1080.000000, 6500.000000, 6780.000000, 0.210000, 1185.500000, 1192.500000, 6500.000000, 6780.000000
3062.464158, -3.171586, 0.345824, 1073.000000, 1080.000000, 6800.000000, 7080.000000, 0.210000, 1193.000000, 1200.000000, 6800.000000, 7080.000000
3296.661059, -3.414881, 0.349733, 1073.000000, 1080.000000, 7100.000000, 7380.000000, 0.210000, 1200.500000, 1207.500000, 7100.000000, 7380.000000
3537.695270, -3.665362, 0.353604, 1073.000000, 1080.000000, 7400.000000, 7680.000000, 0.210000, 1208.000000, 1215.000000, 7400.000000, 7680.000000
3785.506677, -3.922967, 0.357440, 1073.000000, 1080.000000, 7700.000000, 7980.000000, 0.210000, 1215.500000, 1222.500000, 7700.000000, 7980.000000
4040.045746, -4.187647, 0.361244, 1073.000000, 1080.000000, 8000.000000, 8280.000000, 0.210000, 1223.000000, 1230.000000, 8000.000000, 8280.000000
4301.271990, -4.459361, 0.365016, 1073.000000, 1080.000000, 8300.000000, 8580.000000, 0.210000, 1230.500000, 1237.500000, 8300.000000, 8580.000000
4569.152620, -4.738075, 0.368760, 1073.000000, 1080.000000, 8600.000000, 8880.000000, 0.210000, 1238.000000, 1245.000000, 8600.000000, 8880.000000
4834.357608, -5.014091, 0.372352, 1073.000000, 1080.000000, 8900.000000, 9160.000000, 0.210000, 1245.500000, 1252.000000, 8900.000000, 9160.000000
5096.322267, -5.286792, 0.375798, 1073.000000, 1080.000000, 9180.000000, 9440.000000, 0.210000, 1252.500000, 1259.000000, 9180.000000, 9440.000000
5364.029820, -5.565536, 0.379223, 1073.000000, 1080.000000, 9460.000000, 9720.000000, 0.210000, 1259.500000, 1266.000000, 9460.000000, 9720.000000
5637.469943, -5.850314, 0.382627, 1073.000000, 1080.000000, 9740.000000, 10000.000000, 0.210000, 1266.500000, 1273.000000, 9740.000000, 10000.000000
342.113240, -0.351347, 0.273613, 1080.500000, 1087.500000, 2000.000000, 2280.000000, 0.210000
435.341704, -0.447117, 0.278237, 1080.500000, 1087.500000, 2300.000000, 2580.000000, 0.210000
538.822003, -0.553433, 0.282781, 1080.500000, 1087.500000, 2600.000000, 2880.000000, 0.210000
652.187550, -0.669930, 0.287251, 1080.500000, 1087.500000, 2900.000000, 3180.000000, 0.210000
775.073135, -0.796240, 0.291651, 1080.500000, 1087.500000, 3200.000000, 3480.000000, 0.210000
907.122840, -0.932008, 0.295984, 1080.500000, 1087.500000, 3500.000000, 3780.000000, 0.210000
1047.996183, -1.076893, 0.300254, 1080.500000, 1087.500000, 3800.000000, 4080.000000, 0.210000
1197.372596, -1.230573, 0.304463, 1080.500000, 1087.500000, 4100.000000, 4380.000000, 0.210000
1354.954400, -1.392751, 0.308614, 1080.500000, 1087.500000, 4400.000000, 4680.000000, 0.210000
1520.468498, -1.563154, 0.312708, 1080.500000, 1087.500000, 4700.000000, 4980.000000, 0.210000
1693.666991, -1.741532, 0.316749, 1080.500000, 1087.500000, 5000.000000, 5280.000000, 0.210000
1874.326971, -1.927663, 0.320739, 1080.500000, 1087.500000, 5300.000000, 5580.000000, 0.210000
2062.249676, -2.121348, 0.324681, 1080.500000, 1087.500000, 5600.000000, 5880.000000, 0.210000
2257.259209, -2.322411, 0.328576, 1080.500000, 1087.500000, 5900.000000, 6180.000000, 0.210000
2459.200966, -2.530696, 0.332427, 1080.500000, 1087.500000, 6200.000000, 6480.000000, 0.210000
2667.939909, -2.746068, 0.336237, 1080.500000, 1087.500000, 6500.000000, 6780.000000, 0.210000
2883.358769, -2.968410, 0.340007, 1080.500000, 1087.500000, 6800.000000, 7080.000000, 0.210000
3105.356263, -3.197620, 0.343740, 1080.500000, 1087.500000, 7100.000000, 7380.000000, 0.210000
3333.845374, -3.433611, 0.347438, 1080.500000, 1087.500000, 7400.000000, 7680.000000, 0.210000
3568.751726, -3.676309, 0.351102, 1080.500000, 1087.500000, 7700.000000, 7980.000000, 0.210000
3810.012071, -3.925650, 0.354735, 1080.500000, 1087.500000, 8000.000000, 8280.000000, 0.210000
4057.572915, -4.181580, 0.358338, 1080.500000, 1087.500000, 8300.000000, 8580.000000, 0.210000
4311.389261, -4.444054, 0.361913, 1080.500000, 1087.500000, 8600.000000, 8880.000000, 0.210000
4562.611725, -4.703930, 0.365343, 1080.500000, 1087.500000, 8900.000000, 9160.000000, 0.210000
4810.700731, -4.960620, 0.368632, 1080.500000, 1087.500000, 9180.000000, 9440.000000, 0.210000
5064.158561, -5.222931, 0.371901, 1080.500000, 1087.500000, 9460.000000, 9720.000000, 0.210000
5322.967667, -5.490845, 0.375150, 1080.500000, 1087.500000, 9740.000000, 10000.000000, 0.210000
318.962656, -0.325784, 0.271439, 1088.000000, 1095.000000, 2000.000000, 2280.000000, 0.210000
405.802542, -0.414498, 0.275803, 1088.000000, 1095.000000, 2300.000000, 2580.000000, 0.210000
502.323070, -0.513112, 0.280095, 1088.000000, 1095.000000, 2600.000000, 2880.000000, 0.210000
608.223385, -0.621325, 0.284322, 1088.000000, 1095.000000, 2900.000000, 3180.000000, 0.210000
723.197917, -0.738834, 0.288487, 1088.000000, 1095.000000, 3200.000000, 3480.000000, 0.210000
846.942928, -0.865336, 0.292594, 1088.000000, 1095.000000, 3500.000000, 3780.000000, 0.210000
979.161907, -1.000536, 0.296645, 1088.000000, 1095.000000, 3800.000000, 4080.000000, 0.210000
1119.569856, -1.144152, 0.300643, 1088.000000, 1095.000000, 4100.000000, 4380.000000, 0.210000
1267.896494, -1.295913, 0.304588, 1088.000000, 1095.000000, 4400.000000, 4680.000000, 0.210000
1423.888515, -1.455569, 0.308484, 1088.000000, 1095.000000, 4700.000000, 4980.000000, 0.210000
1587.310982, -1.622884, 0.312333, 1088.000000, 1095.000000, 5000.000000, 5280.000000, 0.210000
1757.948003, -1.797646, 0.316136, 1088.000000, 1095.000000, 5300.000000, 5580.000000, 0.210000
1935.602823, -1.979657, 0.319894, 1088.000000, 1095.000000, 5600.000000, 5880.000000, 0.210000
2120.097454, -2.168741, 0.323611, 1088.000000, 1095.000000, 5900.000000, 6180.000000, 0.210000
2311.271961, -2.364739, 0.327288, 1088.000000, 1095.000000, 6200.000000, 6480.000000, 0.210000
2508.983496, -2.567508, 0.330926, 1088.000000, 1095.000000, 6500.000000, 6780.000000, 0.210000
2713.105188, -2.776923, 0.334527, 1088.000000, 1095.000000, 6800.000000, 7080.000000, 0.210000
2923.524922, -2.992871, 0.338094, 1088.000000, 1095.000000, 7100.000000, 7380.000000, 0.210000
3140.144104, -3.215255, 0.341628, 1088.000000, 1095.000000, 7400.000000, 7680.000000, 0.210000
3362.876414, -3.443989, 0.345130, 1088.000000, 1095.000000, 7700.000000, 7980.000000, 0.210000
3591.646606, -3.678998, 0.348602, 1088.000000, 1095.000000, 8000.000000, 8280.000000, 0.210000
3826.389362, -3.920216, 0.352046, 1088.000000, 1095.000000, 8300.000000, 8580.000000, 0.210000
4067.048219, -4.167589, 0.355462, 1088.000000, 1095.000000, 8600.000000, 8880.000000, 0.210000
4305.221250, -4.412487, 0.358741, 1088.000000, 1095.000000, 8900.000000, 9160.000000, 0.210000
4540.388987, -4.654350, 0.361884, 1088.000000, 1095.000000, 9180.000000, 9440.000000, 0.210000
4780.603518, -4.901468, 0.365008, 1088.000000, 1095.000000, 9460.000000, 9720.000000, 0.210000
5025.839782, -5.153816, 0.368112, 1088.000000, 1095.000000, 9740.000000, 10000.000000, 0.210000
297.698970, -0.302434, 0.269425, 1095.500000, 1102.500000, 2000.000000, 2280.000000, 0.210000
378.588700, -0.384623, 0.273546, 1095.500000, 1102.500000, 2300.000000, 2580.000000, 0.210000
468.592587, -0.476077, 0.277602, 1095.500000, 1102.500000, 2600.000000, 2880.000000, 0.210000
567.466541, -0.576556, 0.281600, 1095.500000, 1102.500000, 2900.000000, 3180.000000, 0.210000
674.958338, -0.685808, 0.285543, 1095.500000, 1102.500000, 3200.000000, 3480.000000, 0.210000
790.812846, -0.803583, 0.289434, 1095.500000, 1102.500000, 3500.000000, 3780.000000, 0.210000
914.776523, -0.929630, 0.293276, 1095.500000, 1102.500000, 3800.000000, 4080.000000, 0.210000
1046.601179, -1.063702, 0.297072, 1095.500000, 1102.500000, 4100.000000, 4380.000000, 0.210000
1186.047026, -1.205564, 0.300821, 1095.500000, 1102.500000, 4400.000000, 4680.000000, 0.210000
1332.885045, -1.354988, 0.304527, 1095.500000, 1102.500000, 4700.000000, 4980.000000, 0.210000
1486.898713, -1.511761, 0.308190, 1095.500000, 1102.500000, 5000.000000, 5280.000000, 0.210000
1647.885176, -1.675683, 0.311813, 1095.500000, 1102.500000, 5300.000000, 5580.000000, 0.210000
1815.655919, -1.846566, 0.315397, 1095.500000, 1102.500000, 5600.000000, 5880.000000, 0.210000
1990.037033, -2.024240, 0.318942, 1095.500000, 1102.500000, 5900.000000, 6180.000000, 0.210000
2170.869133, -2.208546, 0.322451, 1095.500000, 1102.500000, 6200.000000, 6480.000000, 0.210000
2358.007017, -2.399342, 0.325925, 1095.500000, 1102.500000, 6500.000000, 6780.000000, 0.210000
2551.319126, -2.596497, 0.329366, 1095.500000, 1102.500000, 6800.000000, 7080.000000, 0.210000
2750.686846, -2.799894, 0.332774, 1095.500000, 1102.500000, 7100.000000, 7380.000000, 0.210000
2956.003732, -3.009428, 0.336152, 1095.500000, 1102.500000, 7400.000000, 7680.000000, 0.210000
3167.174658, -3.225005, 0.339500, 1095.500000, 1102.500000, 7700.000000, 7980.000000, 0.210000
3384.114951, -3.446541, 0.342821, 1095.500000, 1102.500000, 8000.000000, 8280.000000, 0.210000
3606.749527, -3.673962, 0.346114, 1095.500000, 1102.500000, 8300.000000, 8580.000000, 0.210000
3835.012037, -3.907203, 0.349382, 1095.500000, 1102.500000, 8600.000000, 8880.000000, 0.210000
4060.920884, -4.138116, 0.352517, 1095.500000, 1102.500000, 8900.000000, 9160.000000, 0.210000
4283.972981, -4.366163, 0.355524, 1095.500000, 1102.500000, 9180.000000, 9440.000000, 0.210000
4511.796594, -4.599150, 0.358511, 1095.500000, 1102.500000, 9460.000000, 9720.000000, 0.210000
4744.359355, -4.837045, 0.361480, 1095.500000, 1102.500000, 9740.000000, 10000.000000, 0.210000
278.182425, -0.281116, 0.267560, 1103.000000, 1110.000000, 2000.000000, 2280.000000, 0.210000
353.545221, -0.357284, 0.271455, 1103.000000, 1110.000000, 2300.000000, 2580.000000, 0.210000
437.467434, -0.442104, 0.275289, 1103.000000, 1110.000000, 2600.000000, 2880.000000, 0.210000
529.752979, -0.535384, 0.279071, 1103.000000, 1110.000000, 2900.000000, 3180.000000, 0.210000
630.196040, -0.636920, 0.282804, 1103.000000, 1110.000000, 3200.000000, 3480.000000, 0.210000
738.585163, -0.746506, 0.286491, 1103.000000, 1110.000000, 3500.000000, 3780.000000, 0.210000
854.706859, -0.863931, 0.290135, 1103.000000, 1110.000000, 3800.000000, 4080.000000, 0.210000
978.348759, -0.988986, 0.293737, 1103.000000, 1110.000000, 4100.000000, 4380.000000, 0.210000
1109.302280, -1.121468, 0.297299, 1103.000000, 1110.000000, 4400.000000, 4680.000000, 0.210000
1247.364846, -1.261176, 0.300823, 1103.000000, 1110.000000, 4700.000000, 4980.000000, 0.210000
1392.341653, -1.407919, 0.304309, 1103.000000, 1110.000000, 5000.000000, 5280.000000, 0.210000
1544.047022, -1.561516, 0.307759, 1103.000000, 1110.000000, 5300.000000, 5580.000000, 0.210000
1702.305376, -1.721794, 0.311174, 1103.000000, 1110.000000, 5600.000000, 5880.000000, 0.210000
1866.951875, -1.888591, 0.314555, 1103.000000, 1110.000000, 5900.000000, 6180.000000, 0.210000
2037.832759, -2.061756, 0.317904, 1103.000000, 1110.000000, 6200.000000, 6480.000000, 0.210000
2214.805448, -2.241150, 0.321220, 1103.000000, 1110.000000, 6500.000000, 6780.000000, 0.210000
2397.738434, -2.426642, 0.324507, 1103.000000, 1110.000000, 6800.000000, 7080.000000, 0.210000
2586.511019, -2.618115, 0.327764, 1103.000000, 1110.000000, 7100.000000, 7380.000000, 0.210000
2781.012916, -2.815461, 0.330993, 1103.000000, 1110.000000, 7400.000000, 7680.000000, 0.210000
2981.143773, -3.018581, 0.334195, 1103.000000, 1110.000000, 7700.000000, 7980.000000, 0.210000
3186.812624, -3.227385, 0.337370, 1103.000000, 1110.000000, 8000.000000, 8280.000000, 0.210000
3397.937304, -3.441794, 0.340521, 1103.000000, 1110.000000, 8300.000000, 8580.000000, 0.210000
3614.443842, -3.661735, 0.343648, 1103.000000, 1110.000000, 8600.000000, 8880.000000, 0.210000
3828.749022, -3.879512, 0.346649, 1103.000000, 1110.000000, 8900.000000, 9160.000000, 0.210000
4040.363721, -4.094606, 0.349526, 1103.000000, 1110.000000, 9180.000000, 9440.000000, 0.210000
4256.515168, -4.314371, 0.352385, 1103.000000, 1110.000000, 9460.000000, 9720.000000, 0.210000
4477.164421, -4.538768, 0.355227, 1103.000000, 1110.000000, 9740.000000, 10000.000000, 0.210000
260.277231, -0.261657, 0.265832, 1110.500000, 1117.500000, 2000.000000, 2280.000000, 0.210000
330.517212, -0.332280, 0.269515, 1110.500000, 1117.500000, 2300.000000, 2580.000000, 0.210000
408.779151, -0.410967, 0.273143, 1110.500000, 1117.500000, 2600.000000, 2880.000000, 0.210000
494.906901, -0.497566, 0.276723, 1110.500000, 1117.500000, 2900.000000, 3180.000000, 0.210000
588.734165, -0.591914, 0.280258, 1110.500000, 1117.500000, 3200.000000, 3480.000000, 0.210000
690.087657, -0.693842, 0.283752, 1110.500000, 1117.500000, 3500.000000, 3780.000000, 0.210000
798.789943, -0.803176, 0.287208, 1110.500000, 1117.500000, 3800.000000, 4080.000000, 0.210000
914.661978, -0.919741, 0.290626, 1110.500000, 1117.500000, 4100.000000, 4380.000000, 0.210000
1037.525336, -1.043364, 0.294010, 1110.500000, 1117.500000, 4400.000000, 4680.000000, 0.210000
1167.204146, -1.173873, 0.297359, 1110.500000, 1117.500000, 4700.000000, 4980.000000, 0.210000
1303.526717, -1.311100, 0.300676, 1110.500000, 1117.500000, 5000.000000, 5280.000000, 0.210000
1446.326884, -1.454883, 0.303960, 1110.500000, 1117.500000, 5300.000000, 5580.000000, 0.210000
1595.445066, -1.605066, 0.307214, 1110.500000, 1117.500000, 5600.000000, 5880.000000, 0.210000
1750.729085, -1.761502, 0.310437, 1110.500000, 1117.500000, 5900.000000, 6180.000000, 0.210000
1912.034735, -1.924049, 0.313631, 1110.500000, 1117.500000, 6200.000000, 6480.000000, 0.210000
2079.226154, -2.092575, 0.316797, 1110.500000, 1117.500000, 6500.000000, 6780.000000, 0.210000
2252.176022, -2.266955, 0.319936, 1110.500000, 1117.500000, 6800.000000, 7080.000000, 0.210000
2430.765591, -2.447075, 0.323048, 1110.500000, 1117.500000, 7100.000000, 7380.000000, 0.210000
2614.884606, -2.632827, 0.326134, 1110.500000, 1117.500000, 7400.000000, 7680.000000, 0.210000
2804.431108, -2.824111, 0.329196, 1110.500000, 1117.500000, 7700.000000, 7980.000000, 0.210000
2999.311168, -3.020835, 0.332234, 1110.500000, 1117.500000, 8000.000000, 8280.000000, 0.210000
3199.438553, -3.222917, 0.335248, 1110.500000, 1117.500000, 8300.000000, 8580.000000, 0.210000
3404.734349, -3.430278, 0.338241, 1110.500000, 1117.500000, 8600.000000, 8880.000000, 0.210000
3607.995916, -3.635653, 0.341113, 1110.500000, 1117.500000, 8900.000000, 9160.000000, 0.210000
3808.746899, -3.838539, 0.343868, 1110.500000, 1117.500000, 9180.000000, 9440.000000, 0.210000
4013.833448, -4.045862, 0.346606, 1110.500000, 1117.500000, 9460.000000, 9720.000000, 0.210000
4223.211232, -4.257579, 0.349327, 1110.500000, 1117.500000, 9740.000000, 10000.000000, 0.210000
243.853530, -0.243894, 0.264229, 1118.000000, 1125.000000, 2000.000000, 2280.000000, 0.210000
309.353144, -0.309417, 0.267716, 1118.000000, 1125.000000, 2300.000000, 2580.000000, 0.210000
382.358599, -0.382446, 0.271151, 1118.000000, 1125.000000, 2600.000000, 2880.000000, 0.210000
462.746562, -0.462860, 0.274541, 1118.000000, 1125.000000, 2900.000000, 3180.000000, 0.210000
550.383827, -0.550530, 0.277891, 1118.000000, 1125.000000, 3200.000000, 3480.000000, 0.210000
645.129758, -0.645318, 0.281203, 1118.000000, 1125.000000, 3500.000000, 3780.000000, 0.210000
746.838505, -0.747084, 0.284481, 1118.000000, 1125.000000, 3800.000000, 4080.000000, 0.210000
855.360997, -0.855683, 0.287726, 1118.000000, 1125.000000, 4100.000000, 4380.000000, 0.210000
970.546753, -0.970969, 0.290940, 1118.000000, 1125.000000, 4400.000000, 4680.000000, 0.210000
1092.245483, -1.092796, 0.294123, 1118.000000, 1125.000000, 4700.000000, 4980.000000, 0.210000
1220.308506, -1.221019, 0.297278, 1118.000000, 1125.000000, 5000.000000, 5280.000000, 0.210000
1354.589956, -1.355498, 0.300404, 1118.000000, 1125.000000, 5300.000000, 5580.000000, 0.210000
1494.947816, -1.496095, 0.303503, 1118.000000, 1125.000000, 5600.000000, 5880.000000, 0.210000
1641.244750, -1.642677, 0.306575, 1118.000000, 1125.000000, 5900.000000, 6180.000000, 0.210000
1793.348779, -1.795115, 0.309621, 1118.000000, 1125.000000, 6200.000000, 6480.000000, 0.210000
1951.133784, -1.953289, 0.312642, 1118.000000, 1125.000000, 6500.000000, 6780.000000, 0.210000
2114.479871, -2.117080, 0.315639, 1118.000000, 1125.000000, 6800.000000, 7080.000000, 0.210000
2283.273605, -2.286381, 0.318611, 1118.000000, 1125.000000, 7100.000000, 7380.000000, 0.210000
2457.408131, -2.461087, 0.321561, 1118.000000, 1125.000000, 7400.000000, 7680.000000, 0.210000
2636.783197, -2.641101, 0.324488, 1118.000000, 1125.000000, 7700.000000, 7980.000000, 0.210000
2821.305094, -2.826333, 0.327394, 1118.000000, 1125.000000, 8000.000000, 8280.000000, 0.210000
3010.886529, -3.016698, 0.330279, 1118.000000, 1125.000000, 8300.000000, 8580.000000, 0.210000
3205.446446, -3.212118, 0.333143, 1118.000000, 1125.000000, 8600.000000, 8880.000000, 0.210000
3398.148031, -3.405734, 0.335893, 1118.000000, 1125.000000, 8900.000000, 9160.000000, 0.210000
3588.527512, -3.597061, 0.338531, 1118.000000, 1125.000000, 9180.000000, 9440.000000, 0.210000
3783.067760, -3.792620, 0.341154, 1118.000000, 1125.000000, 9460.000000, 9720.000000, 0.210000
3981.720562, -3.992367, 0.343760, 1118.000000, 1125.000000, 9740.000000, 10000.000000, 0.210000
228.788667, -0.227676, 0.262741, 1125.500000, 1132.500000, 2000.000000, 2280.000000, 0.210000
289.907232, -0.288514, 0.266046, 1125.500000, 1132.500000, 2300.000000, 2580.000000, 0.210000
358.039614, -0.356329, 0.269302, 1125.500000, 1132.500000, 2600.000000, 2880.000000, 0.210000
433.089180, -0.431028, 0.272515, 1125.500000, 1132.500000, 2900.000000, 3180.000000, 0.210000
