Coefficients constant [W],Coefficients T [W/K],Coefficients j [W/(A/m^2)],T_start [K],T_end [K],j_start [A/m^2],j_end [A/m^2],Area [m^2],Temperature starts,Temperature ends,Current density starts,Current density ends
359.078171, -1.367009, 0.473312, 293.000000, 296.000000, 1500.000000, 2193.750000, 0.210000, 293.000000, 296.000000, 1500.000000, 2193.750000
569.593646, -2.200678, 0.488890, 293.000000, 296.000000, 2309.375000, 3003.125000, 0.210000, 296.500000, 299.500000, 2309.375000, 3003.125000
816.552833, -3.190781, 0.503481, 293.000000, 296.000000, 3118.750000, 3812.500000, 0.210000, 300.000000, 303.000000, 3118.750000, 3812.500000
1100.381489, -4.339328, 0.517547, 293.000000, 296.000000, 3928.125000, 4621.875000, 0.210000, 303.500000, 306.500000, 3928.125000, 4621.875000
1421.225695, -5.647432, 0.531310, 293.000000, 296.000000, 4737.500000, 5431.250000, 0.210000, 307.000000, 310.000000, 4737.500000, 5431.250000
1779.059935, -7.115737, 0.544898, 293.000000, 296.000000, 5546.875000, 6240.625000, 0.210000, 310.500000, 313.500000, 5546.875000, 6240.625000
2173.726503, -8.744599, 0.558399, 293.000000, 296.000000, 6356.250000, 7050.000000, 0.210000, 314.000000, 317.000000, 6356.250000, 7050.000000
2604.945126, -10.534164, 0.571878, 293.000000, 296.000000, 7165.625000, 7859.375000, 0.210000, 317.500000, 320.500000, 7165.625000, 7859.375000
3072.304764, -12.484416, 0.585392, 293.000000, 296.000000, 7975.000000, 8668.750000, 0.210000, 321.000000, 324.000000, 7975.000000, 8668.750000
3575.240281, -14.595187, 0.598992, 293.000000, 296.000000, 8784.375000, 9478.125000, 0.210000, 324.500000, 327.500000, 8784.375000, 9478.125000
4112.992009, -16.866165, 0.612733, 293.000000, 296.000000, 9593.750000, 10287.500000, 0.210000, 328.000000, 331.000000, 9593.750000, 10287.500000
4641.998500, -19.116210, 0.625674, 293.000000, 296.000000, 10403.125000, 10981.250000, 0.210000, 331.500000, 334.000000, 10403.125000, 10981.250000
5155.830706, -21.316601, 0.637828, 293.000000, 296.000000, 11096.875000, 11675.000000, 0.210000, 334.500000, 337.000000, 11096.875000, 11675.000000
5692.447417, -23.633363, 0.650242, 293.000000, 296.000000, 11790.625000, 12368.750000, 0.210000, 337.500000, 340.000000, 11790.625000, 12368.750000
6250.345595, -26.065797, 0.662992, 293.000000, 296.000000, 12484.375000, 13062.500000, 0.210000, 340.500000, 343.000000, 12484.375000, 13062.500000
6827.483276, -28.613002, 0.676177, 293.000000, 296.000000, 13178.125000, 13756.250000, 0.210000, 343.500000, 346.000000, 13178.125000, 13756.250000
7421.015170, -31.273797, 0.689934, 293.000000, 296.000000, 13871.875000, 14450.000000, 0.210000, 346.500000, 349.000000, 13871.875000, 14450.000000
8026.851516, -34.046615, 0.704459, 293.000000, 296.000000, 14565.625000, 15143.750000, 0.210000, 349.500000, 352.000000, 14565.625000, 15143.750000
8638.884245, -36.929328, 0.720041, 293.000000, 296.000000, 15259.375000, 15837.500000, 0.210000, 352.500000, 355.000000, 15259.375000, 15837.500000
9247.543257, -39.918942, 0.737134, 293.000000, 296.000000, 15953.125000, 16531.250000, 0.210000, 355.500000, 358.000000, 15953.125000, 16531.250000
9836.885790, -43.011072, 0.756494, 293.000000, 296.000000, 16646.875000, 17225.000000, 0.210000, 358.500000, 361.000000, 16646.875000, 17225.000000
10378.106892, -46.198903, 0.779487, 293.000000, 296.000000, 17340.625000, 17918.750000, 0.210000, 361.500000, 364.000000, 17340.625000, 17918.750000
10812.947266, -49.470947, 0.808879, 293.000000, 296.000000, 18034.375000, 18612.500000, 0.210000, 364.500000, 367.000000, 18034.375000, 18612.500000
11001.890025, -52.805299, 0.851308, 293.000000, 296.000000, 18728.125000, 19306.250000, 0.210000, 367.500000, 370.000000, 18728.125000, 19306.250000
10499.164296, -56.150526, 0.928012, 293.000000, 296.000000, 19421.875000, 20000.000000, 0.210000, 370.500000, 373.000000, 19421.875000, 20000.000000
365.723499, -1.369255, 0.470075, 296.500000, 299.500000, 1500.000000, 2193.750000, 0.210000
573.939734, -2.180589, 0.485014, 296.500000, 299.500000, 2309.375000, 3003.125000, 0.210000
815.417950, -3.133991, 0.498955, 296.500000, 299.500000, 3118.750000, 3812.500000, 0.210000
1090.588963, -4.231468, 0.512364, 296.500000, 299.500000, 3928.125000, 4621.875000, 0.210000
1399.600592, -5.474134, 0.525467, 296.500000, 299.500000, 4737.500000, 5431.250000, 0.210000
1742.427017, -6.862635, 0.538393, 296.500000, 299.500000, 5546.875000, 6240.625000, 0.210000
2118.908657, -8.397324, 0.551231, 296.500000, 299.500000, 6356.250000, 7050.000000, 0.210000
2528.761910, -10.078350, 0.564047, 296.500000, 299.500000, 7165.625000, 7859.375000, 0.210000
2971.570849, -11.905693, 0.576897, 296.500000, 299.500000, 7975.000000, 8668.750000, 0.210000
3446.763621, -13.879190, 0.589835, 296.500000, 299.500000, 8784.375000, 9478.125000, 0.210000
3953.571533, -15.998525, 0.602916, 296.500000, 299.500000, 9593.750000, 10287.500000, 0.210000
4451.014977, -18.095053, 0.615245, 296.500000, 299.500000, 10403.125000, 10981.250000, 0.210000
4933.198382, -20.142594, 0.626838, 296.500000, 299.500000, 11096.875000, 11675.000000, 0.210000
5435.781270, -22.295950, 0.638694, 296.500000, 299.500000, 11790.625000, 12368.750000, 0.210000
5957.242737, -24.554423, 0.650889, 296.500000, 299.500000, 12484.375000, 13062.500000, 0.210000
6495.516555, -26.917110, 0.663525, 296.500000, 299.500000, 13178.125000, 13756.250000, 0.210000
7047.723616, -29.382831, 0.676740, 296.500000, 299.500000, 13871.875000, 14450.000000, 0.210000
7609.725554, -31.950021, 0.690731, 296.500000, 299.500000, 14565.625000, 15143.750000, 0.210000
8175.341712, -34.616549, 0.705792, 296.500000, 299.500000, 15259.375000, 15837.500000, 0.210000
8734.888250, -37.379423, 0.722382, 296.500000, 299.500000, 15953.125000, 16531.250000, 0.210000
9272.232934, -40.234256, 0.741266, 296.500000, 299.500000, 16646.875000, 17225.000000, 0.210000
9758.228480, -43.174236, 0.763826, 296.500000, 299.500000, 17340.625000, 17918.750000, 0.210000
10133.923204, -46.187872, 0.792862, 296.500000, 299.500000, 18034.375000, 18612.500000, 0.210000
10258.142123, -49.253260, 0.835089, 296.500000, 299.500000, 18728.125000, 19306.250000, 0.210000
9679.816580, -52.318968, 0.911998, 296.500000, 299.500000, 19421.875000, 20000.000000, 0.210000
373.434783, -1.375390, 0.466896, 300.000000, 303.000000, 1500.000000, 2193.750000, 0.210000
580.296228, -2.168480, 0.481255, 300.000000, 303.000000, 2309.375000, 3003.125000, 0.210000
817.533055, -3.090741, 0.494605, 300.000000, 303.000000, 3118.750000, 3812.500000, 0.210000
1085.581141, -4.144180, 0.507416, 300.000000, 303.000000, 3928.125000, 4621.875000, 0.210000
1384.590039, -5.329912, 0.519918, 300.000000, 303.000000, 4737.500000, 5431.250000, 0.210000
1714.533628, -6.648581, 0.532241, 300.000000, 303.000000, 5546.875000, 6240.625000, 0.210000
2075.250451, -8.100542, 0.544474, 300.000000, 303.000000, 6356.250000, 7050.000000, 0.210000
2466.453576, -9.685941, 0.556685, 300.000000, 303.000000, 7165.625000, 7859.375000, 0.210000
2887.722191, -11.404762, 0.568931, 300.000000, 303.000000, 7975.000000, 8668.750000, 0.210000
3338.477727, -13.256839, 0.581266, 300.000000, 303.000000, 8784.375000, 9478.125000, 0.210000
3817.942461, -15.241858, 0.593746, 300.000000, 303.000000, 9593.750000, 10287.500000, 0.210000
4287.426256, -17.202258, 0.605519, 300.000000, 303.000000, 10403.125000, 10981.250000, 0.210000
4741.516925, -19.114140, 0.616600, 300.000000, 303.000000, 11096.875000, 11675.000000, 0.210000
5213.838885, -21.122362, 0.627948, 300.000000, 303.000000, 11790.625000, 12368.750000, 0.210000
5702.853370, -23.226226, 0.639640, 300.000000, 303.000000, 12484.375000, 13062.500000, 0.210000
6206.469883, -25.424828, 0.651776, 300.000000, 303.000000, 13178.125000, 13756.250000, 0.210000
6721.775502, -27.716990, 0.664499, 300.000000, 303.000000, 13871.875000, 14450.000000, 0.210000
7244.583257, -30.101145, 0.678007, 300.000000, 303.000000, 14565.625000, 15143.750000, 0.210000
7768.639897, -32.575162, 0.692598, 300.000000, 303.000000, 15259.375000, 15837.500000, 0.210000
8284.147849, -35.136050, 0.708736, 300.000000, 303.000000, 15953.125000, 16531.250000, 0.210000
8774.785403, -37.779423, 0.727194, 300.000000, 303.000000, 16646.875000, 17225.000000, 0.210000
9211.062942, -40.498466, 0.749372, 300.000000, 303.000000, 17340.625000, 17918.750000, 0.210000
9533.336397, -43.281690, 0.778102, 300.000000, 303.000000, 18034.375000, 18612.500000, 0.210000
9598.772691, -46.107192, 0.820177, 300.000000, 303.000000, 18728.125000, 19306.250000, 0.210000
8951.005378, -48.923537, 0.897343, 300.000000, 303.000000, 19421.875000, 20000.000000, 0.210000
382.125448, -1.384955, 0.463761, 303.500000, 306.500000, 1500.000000, 2193.750000, 0.210000
588.485888, -2.163410, 0.477594, 303.500000, 306.500000, 2309.375000, 3003.125000, 0.210000
822.597652, -3.059436, 0.490405, 303.500000, 306.500000, 3118.750000, 3812.500000, 0.210000
1084.901677, -4.075041, 0.502672, 303.500000, 306.500000, 3928.125000, 4621.875000, 0.210000
1375.549251, -5.211338, 0.514625, 303.500000, 306.500000, 4737.500000, 5431.250000, 0.210000
1694.513952, -6.468973, 0.526397, 303.500000, 306.500000, 5546.875000, 6240.625000, 0.210000
2041.632446, -7.848299, 0.538079, 303.500000, 306.500000, 6356.250000, 7050.000000, 0.210000
2416.614472, -9.349465, 0.549739, 303.500000, 306.500000, 7165.625000, 7859.375000, 0.210000
2819.034332, -10.972453, 0.561433, 303.500000, 306.500000, 7975.000000, 8668.750000, 0.210000
3248.306741, -12.717097, 0.573218, 303.500000, 306.500000, 8784.375000, 9478.125000, 0.210000
3703.644948, -14.583082, 0.585149, 303.500000, 306.500000, 9593.750000, 10287.500000, 0.210000
4148.387216, -16.422693, 0.596415, 303.500000, 306.500000, 10403.125000, 10981.250000, 0.210000
4577.560198, -18.214082, 0.607031, 303.500000, 306.500000, 11096.875000, 11675.000000, 0.210000
5022.989167, -20.093289, 0.617916, 303.500000, 306.500000, 11790.625000, 12368.750000, 0.210000
5483.117494, -22.059615, 0.629149, 303.500000, 306.500000, 12484.375000, 13062.500000, 0.210000
5955.830414, -24.112157, 0.640832, 303.500000, 306.500000, 13178.125000, 13756.250000, 0.210000
6438.181190, -26.249737, 0.653108, 303.500000, 306.500000, 13871.875000, 14450.000000, 0.210000
6925.934246, -28.470787, 0.666179, 303.500000, 306.500000, 14565.625000, 15143.750000, 0.210000
7412.763741, -30.773177, 0.680344, 303.500000, 306.500000, 15259.375000, 15837.500000, 0.210000
7888.758364, -33.153916, 0.696075, 303.500000, 306.500000, 15953.125000, 16531.250000, 0.210000
8337.406934, -35.608617, 0.714153, 303.500000, 306.500000, 16646.875000, 17225.000000, 0.210000
8728.877499, -38.130466, 0.735994, 303.500000, 306.500000, 17340.625000, 17918.750000, 0.210000
9002.833606, -40.707974, 0.764463, 303.500000, 306.500000, 18034.375000, 18612.500000, 0.210000
9014.784080, -43.319238, 0.806433, 303.500000, 306.500000, 18728.125000, 19306.250000, 0.210000
8303.064691, -45.912822, 0.883899, 303.500000, 306.500000, 19421.875000, 20000.000000, 0.210000
391.719765, -1.397552, 0.460659, 307.000000, 310.000000, 1500.000000, 2193.750000, 0.210000
598.353684, -2.164563, 0.474012, 307.000000, 310.000000, 2309.375000, 3003.125000, 0.210000
830.348901, -3.038691, 0.486333, 307.000000, 310.000000, 3118.750000, 3812.500000, 0.210000
1088.151414, -4.021945, 0.498103, 307.000000, 310.000000, 3928.125000, 4621.875000, 0.210000
1371.914248, -5.115438, 0.509555, 307.000000, 310.000000, 4737.500000, 5431.250000, 0.210000
1681.610676, -6.319816, 0.520825, 307.000000, 310.000000, 5546.875000, 6240.625000, 0.210000
2017.075491, -7.635433, 0.532003, 307.000000, 310.000000, 6356.250000, 7050.000000, 0.210000
2378.015101, -9.062437, 0.543158, 307.000000, 310.000000, 7165.625000, 7859.375000, 0.210000
2763.998923, -10.600809, 0.554349, 307.000000, 310.000000, 7975.000000, 8668.750000, 0.210000
3174.434955, -12.250384, 0.565631, 307.000000, 310.000000, 8784.375000, 9478.125000, 0.210000
3608.527418, -14.010848, 0.577062, 307.000000, 310.000000, 9593.750000, 10287.500000, 0.210000
4031.409287, -15.743231, 0.587864, 307.000000, 310.000000, 10403.125000, 10981.250000, 0.210000
4438.506369, -17.427533, 0.598055, 307.000000, 310.000000, 11096.875000, 11675.000000, 0.210000
4860.056076, -19.191974, 0.608519, 307.000000, 310.000000, 11790.625000, 12368.750000, 0.210000
5294.483917, -21.035854, 0.619334, 307.000000, 310.000000, 12484.375000, 13062.500000, 0.210000
5739.650858, -22.958271, 0.630604, 307.000000, 310.000000, 13178.125000, 13756.250000, 0.210000
6192.576348, -24.958045, 0.642474, 307.000000, 310.000000, 13871.875000, 14450.000000, 0.210000
6648.976206, -27.033611, 0.655148, 307.000000, 310.000000, 14565.625000, 15143.750000, 0.210000
7102.451999, -29.182836, 0.668930, 307.000000, 310.000000, 15259.375000, 15837.500000, 0.210000
7542.978679, -31.402731, 0.684294, 307.000000, 310.000000, 15953.125000, 16531.250000, 0.210000
7953.855595, -33.688908, 0.702033, 307.000000, 310.000000, 16646.875000, 17225.000000, 0.210000
8304.908458, -36.034553, 0.723578, 307.000000, 310.000000, 17340.625000, 17918.750000, 0.210000
8535.108431, -38.428177, 0.751827, 307.000000, 310.000000, 18034.375000, 18612.500000, 0.210000
8498.306244, -40.847878, 0.793732, 307.000000, 310.000000, 18728.125000, 19306.250000, 0.210000
7727.539879, -43.242219, 0.871540, 307.000000, 310.000000, 19421.875000, 20000.000000, 0.210000
402.151342, -1.412836, 0.457579, 310.500000, 313.500000, 1500.000000, 2193.750000, 0.210000
609.763698, -2.171228, 0.470496, 310.500000, 313.500000, 2309.375000, 3003.125000, 0.210000
840.556370, -3.027301, 0.482368, 310.500000, 313.500000, 3118.750000, 3812.500000, 0.210000
1094.980414, -3.983062, 0.493684, 310.500000, 313.500000, 3928.125000, 4621.875000, 0.210000
1373.190593, -5.039626, 0.504679, 310.500000, 313.500000, 4737.500000, 5431.250000, 0.210000
1675.159875, -6.197638, 0.515489, 310.500000, 313.500000, 5546.875000, 6240.625000, 0.210000
2000.721181, -7.457452, 0.526206, 310.500000, 313.500000, 6356.250000, 7050.000000, 0.210000
2349.577585, -8.819215, 0.536901, 310.500000, 313.500000, 7165.625000, 7859.375000, 0.210000
2721.293620, -10.282910, 0.547631, 310.500000, 313.500000, 7975.000000, 8668.750000, 0.210000
3115.270569, -11.848371, 0.558453, 310.500000, 313.500000, 8784.375000, 9478.125000, 0.210000
3530.703623, -13.515284, 0.569426, 310.500000, 313.500000, 9593.750000, 10287.500000, 0.210000
3934.310790, -15.152452, 0.579805, 310.500000, 313.500000, 10403.125000, 10981.250000, 0.210000
4321.881590, -16.741546, 0.589608, 310.500000, 313.500000, 11096.875000, 11675.000000, 0.210000
4722.255237, -18.403845, 0.599686, 310.500000, 313.500000, 11790.625000, 12368.750000, 0.210000
5133.839374, -20.138650, 0.610120, 310.500000, 313.500000, 12484.375000, 13062.500000, 0.210000
5554.470701, -21.945058, 0.621015, 310.500000, 313.500000, 13178.125000, 13756.250000, 0.210000
5981.134851, -23.821890, 0.632516, 310.500000, 313.500000, 13871.875000, 14450.000000, 0.210000
6409.499039, -25.767580, 0.644830, 310.500000, 313.500000, 14565.625000, 15143.750000, 0.210000
6833.092239, -27.779998, 0.658264, 310.500000, 313.500000, 15259.375000, 15837.500000, 0.210000
7241.775669, -29.856151, 0.673299, 310.500000, 313.500000, 15953.125000, 16531.250000, 0.210000
7618.659202, -31.991653, 0.690736, 310.500000, 313.500000, 16646.875000, 17225.000000, 0.210000
7933.226218, -34.179690, 0.712022, 310.500000, 313.500000, 17340.625000, 17918.750000, 0.210000
8123.755494, -36.408772, 0.740087, 310.500000, 313.500000, 18034.375000, 18612.500000, 0.210000
8042.439663, -38.656998, 0.781964, 310.500000, 313.500000, 18728.125000, 19306.250000, 0.210000
7217.018923, -40.872931, 0.860152, 310.500000, 313.500000, 19421.875000, 20000.000000, 0.210000
413.361842, -1.430505, 0.454511, 314.000000, 317.000000, 1500.000000, 2193.750000, 0.210000
622.596511, -2.182788, 0.467030, 314.000000, 317.000000, 2309.375000, 3003.125000, 0.210000
853.017595, -3.024216, 0.478494, 314.000000, 317.000000, 3118.750000, 3812.500000, 0.210000
1105.081213, -3.956798, 0.489394, 314.000000, 317.000000, 3928.125000, 4621.875000, 0.210000
1378.943861, -4.981648, 0.499970, 314.000000, 317.000000, 4737.500000, 5431.250000, 0.210000
1674.578206, -6.099411, 0.510359, 314.000000, 317.000000, 5546.875000, 6240.625000, 0.210000
1991.815293, -7.310440, 0.520655, 314.000000, 317.000000, 6356.250000, 7050.000000, 0.210000
2330.354867, -8.614884, 0.530927, 314.000000, 317.000000, 7165.625000, 7859.375000, 0.210000
2689.756575, -10.012724, 0.541235, 314.000000, 317.000000, 7975.000000, 8668.750000, 0.210000
3069.414983, -11.503796, 0.551637, 314.000000, 317.000000, 8784.375000, 9478.125000, 0.210000
3468.516255, -13.087785, 0.562190, 314.000000, 317.000000, 9593.750000, 10287.500000, 0.210000
3855.174838, -14.640404, 0.572182, 314.000000, 317.000000, 10403.125000, 10981.250000, 0.210000
4225.512272, -16.144833, 0.581631, 314.000000, 317.000000, 11096.875000, 11675.000000, 0.210000
4607.140221, -17.716197, 0.591357, 314.000000, 317.000000, 11790.625000, 12368.750000, 0.210000
4998.448466, -19.353796, 0.601444, 314.000000, 317.000000, 12484.375000, 13062.500000, 0.210000
5397.249440, -21.056728, 0.611996, 314.000000, 317.000000, 13178.125000, 13756.250000, 0.210000
5800.494961, -22.823814, 0.623161, 314.000000, 317.000000, 13871.875000, 14450.000000, 0.210000
6203.803639, -24.653487, 0.635148, 314.000000, 317.000000, 14565.625000, 15143.750000, 0.210000
6600.631855, -26.543616, 0.648269, 314.000000, 317.000000, 15259.375000, 15837.500000, 0.210000
6980.727091, -28.491210, 0.663008, 314.000000, 317.000000, 15953.125000, 16531.250000, 0.210000
7327.009748, -30.491883, 0.680175, 314.000000, 317.000000, 16646.875000, 17225.000000, 0.210000
7608.620873, -32.538820, 0.701235, 314.000000, 317.000000, 17340.625000, 17918.750000, 0.210000
7763.146856, -34.620533, 0.729151, 314.000000, 317.000000, 18034.375000, 18612.500000, 0.210000
7641.122236, -36.715117, 0.771032, 314.000000, 317.000000, 18728.125000, 19306.250000, 0.210000
6764.989422, -38.771139, 0.849632, 314.000000, 317.000000, 19421.875000, 20000.000000, 0.210000
425.299895, -1.450296, 0.451447, 317.500000, 320.500000, 1500.000000, 2193.750000, 0.210000
636.746965, -2.198701, 0.463604, 317.500000, 320.500000, 2309.375000, 3003.125000, 0.210000
867.554300, -3.028519, 0.474694, 317.500000, 320.500000, 3118.750000, 3812.500000, 0.210000
1118.183077, -3.941758, 0.485214, 317.500000, 320.500000, 3928.125000, 4621.875000, 0.210000
1388.791530, -4.939533, 0.495406, 317.500000, 320.500000, 4737.500000, 5431.250000, 0.210000
1679.352021, -6.022487, 0.505409, 317.500000, 320.500000, 5546.875000, 6240.625000, 0.210000
1989.693722, -7.190976, 0.515318, 317.500000, 320.500000, 6356.250000, 7050.000000, 0.210000
2319.513046, -8.445146, 0.525203, 317.500000, 320.500000, 7165.625000, 7859.375000, 0.210000
2668.364756, -9.784980, 0.535125, 317.500000, 320.500000, 7975.000000, 8668.750000, 0.210000
3035.636701, -11.210313, 0.545140, 317.500000, 320.500000, 8784.375000, 9478.125000, 0.210000
3420.506017, -12.720831, 0.555310, 317.500000, 320.500000, 9593.750000, 10287.500000, 0.210000
3792.313577, -14.198387, 0.564948, 317.500000, 320.500000, 10403.125000, 10981.250000, 0.210000
4147.484524, -15.627532, 0.574071, 317.500000, 320.500000, 11096.875000, 11675.000000, 0.210000
4512.556899, -17.117930, 0.583477, 317.500000, 320.500000, 11790.625000, 12368.750000, 0.210000
4885.902621, -18.668882, 0.593245, 317.500000, 320.500000, 12484.375000, 13062.500000, 0.210000
5265.309854, -20.279486, 0.603485, 317.500000, 320.500000, 13178.125000, 13756.250000, 0.210000
5647.696602, -21.948563, 0.614345, 317.500000, 320.500000, 13871.875000, 14450.000000, 0.210000
6028.632868, -23.674545, 0.626036, 317.500000, 320.500000, 14565.625000, 15143.750000, 0.210000
6401.502444, -25.455303, 0.638872, 317.500000, 320.500000, 15259.375000, 15837.500000, 0.210000
6755.939074, -27.287844, 0.653345, 317.500000, 320.500000, 15953.125000, 16531.250000, 0.210000
