Coefficients constant [W],Coefficients T [W/K],Coefficients j [W/(A/m^2)],T_start [K],T_end [K],j_start [A/m^2],j_end [A/m^2],Area [m^2],Temperature starts,Temperature ends,Current density starts,Current density ends
510.815373, -1.723725, 0.447841, 313.000000, 315.000000, 1000.000000, 1120.000000, 0.210000, 313.000000, 315.000000, 1000.000000, 1120.000000
585.030091, -1.982385, 0.454014, 313.000000, 315.000000, 1150.000000, 1270.000000, 0.210000, 315.500000, 317.500000, 1150.000000, 1270.000000
659.649667, -2.244804, 0.460069, 313.000000, 315.000000, 1300.000000, 1420.000000, 0.210000, 318.000000, 320.000000, 1300.000000, 1420.000000
734.606679, -2.510950, 0.466071, 313.000000, 315.000000, 1450.000000, 1570.000000, 0.210000, 320.500000, 322.500000, 1450.000000, 1570.000000
809.816219, -2.780775, 0.472075, 313.000000, 315.000000, 1600.000000, 1720.000000, 0.210000, 323.000000, 325.000000, 1600.000000, 1720.000000
877.604074, -3.026660, 0.477519, 313.000000, 315.000000, 1750.000000, 1840.000000, 0.210000, 325.500000, 327.000000, 1750.000000, 1840.000000
937.907744, -3.247688, 0.482424, 313.000000, 315.000000, 1870.000000, 1960.000000, 0.210000, 327.500000, 329.000000, 1870.000000, 1960.000000
998.144469, -3.470942, 0.487419, 313.000000, 315.000000, 1990.000000, 2080.000000, 0.210000, 329.500000, 331.000000, 1990.000000, 2080.000000
1058.211204, -3.696365, 0.492534, 313.000000, 315.000000, 2110.000000, 2200.000000, 0.210000, 331.500000, 333.000000, 2110.000000, 2200.000000
1117.980203, -3.923891, 0.497803, 313.000000, 315.000000, 2230.000000, 2320.000000, 0.210000, 333.500000, 335.000000, 2230.000000, 2320.000000
1177.291152, -4.153440, 0.503270, 313.000000, 315.000000, 2350.000000, 2440.000000, 0.210000, 335.500000, 337.000000, 2350.000000, 2440.000000
1235.939995, -4.384916, 0.508986, 313.000000, 315.000000, 2470.000000, 2560.000000, 0.210000, 337.500000, 339.000000, 2470.000000, 2560.000000
1293.662709, -4.618201, 0.515016, 313.000000, 315.000000, 2590.000000, 2680.000000, 0.210000, 339.500000, 341.000000, 2590.000000, 2680.000000
1350.111111, -4.853150, 0.521443, 313.000000, 315.000000, 2710.000000, 2800.000000, 0.210000, 341.500000, 343.000000, 2710.000000, 2800.000000
1404.815737, -5.089583, 0.528381, 313.000000, 315.000000, 2830.000000, 2920.000000, 0.210000, 343.500000, 345.000000, 2830.000000, 2920.000000
1457.126855, -5.327267, 0.535985, 313.000000, 315.000000, 2950.000000, 3040.000000, 0.210000, 345.500000, 347.000000, 2950.000000, 3040.000000
1506.116837, -5.565903, 0.544474, 313.000000, 315.000000, 3070.000000, 3160.000000, 0.210000, 347.500000, 349.000000, 3070.000000, 3160.000000
1550.410531, -5.805085, 0.554174, 313.000000, 315.000000, 3190.000000, 3280.000000, 0.210000, 349.500000, 351.000000, 3190.000000, 3280.000000
1587.872442, -6.044253, 0.565591, 313.000000, 315.000000, 3310.000000, 3400.000000, 0.210000, 351.500000, 353.000000, 3310.000000, 3400.000000
1614.985474, -6.282598, 0.579560, 313.000000, 315.000000, 3430.000000, 3520.000000, 0.210000, 353.500000, 355.000000, 3430.000000, 3520.000000
1625.493281, -6.518879, 0.597564, 313.000000, 315.000000, 3550.000000, 3640.000000, 0.210000, 355.500000, 357.000000, 3550.000000, 3640.000000
1607.026090, -6.751041, 0.622542, 313.000000, 315.000000, 3670.000000, 3760.000000, 0.210000, 357.500000, 359.000000, 3670.000000, 3760.000000
1531.014773, -6.975271, 0.661287, 313.000000, 315.000000, 3790.000000, 3880.000000, 0.210000, 359.500000, 361.000000, 3790.000000, 3880.000000
1312.179025, -7.183041, 0.734110, 313.000000, 315.000000, 3910.000000, 4000.000000, 0.210000, 361.500000, 363.000000, 3910.000000, 4000.000000
507.487996, -1.698909, 0.443600, 315.500000, 317.500000, 1000.000000, 1120.000000, 0.210000
580.923646, -1.952848, 0.449713, 315.500000, 317.500000, 1150.000000, 1270.000000, 0.210000
654.686132, -2.210244, 0.455708, 315.500000, 317.500000, 1300.000000, 1420.000000, 0.210000
728.707413, -2.471062, 0.461651, 315.500000, 317.500000, 1450.000000, 1570.000000, 0.210000
802.901839, -2.735257, 0.467596, 315.500000, 317.500000, 1600.000000, 1720.000000, 0.210000
869.708931, -2.975819, 0.472989, 315.500000, 317.500000, 1750.000000, 1840.000000, 0.210000
929.084278, -3.191906, 0.477849, 315.500000, 317.500000, 1870.000000, 1960.000000, 0.210000
988.339972, -3.410024, 0.482800, 315.500000, 317.500000, 1990.000000, 2080.000000, 0.210000
1047.372131, -3.630116, 0.487872, 315.500000, 317.500000, 2110.000000, 2200.000000, 0.210000
1106.051974, -3.852117, 0.493101, 315.500000, 317.500000, 2230.000000, 2320.000000, 0.210000
1164.217897, -4.075946, 0.498529, 315.500000, 317.500000, 2350.000000, 2440.000000, 0.210000
1221.664208, -4.301507, 0.504208, 315.500000, 317.500000, 2470.000000, 2560.000000, 0.210000
1278.124769, -4.528683, 0.510203, 315.500000, 317.500000, 2590.000000, 2680.000000, 0.210000
1333.248613, -4.757328, 0.516600, 315.500000, 317.500000, 2710.000000, 2800.000000, 0.210000
1386.562531, -4.987262, 0.523511, 315.500000, 317.500000, 2830.000000, 2920.000000, 0.210000
1437.411607, -5.218254, 0.531093, 315.500000, 317.500000, 2950.000000, 3040.000000, 0.210000
1484.860822, -5.450001, 0.539568, 315.500000, 317.500000, 3070.000000, 3160.000000, 0.210000
1527.524064, -5.682100, 0.549264, 315.500000, 317.500000, 3190.000000, 3280.000000, 0.210000
1563.248832, -5.913990, 0.560691, 315.500000, 317.500000, 3310.000000, 3400.000000, 0.210000
1588.490020, -6.144863, 0.574690, 315.500000, 317.500000, 3430.000000, 3520.000000, 0.210000
1596.941463, -6.373476, 0.592756, 315.500000, 317.500000, 3550.000000, 3640.000000, 0.210000
1576.134899, -6.597775, 0.617851, 315.500000, 317.500000, 3670.000000, 3760.000000, 0.210000
1497.273733, -6.813948, 0.656825, 315.500000, 317.500000, 3790.000000, 3880.000000, 0.210000
1274.398671, -7.013465, 0.730147, 315.500000, 317.500000, 3910.000000, 4000.000000, 0.210000
504.332765, -1.675078, 0.439433, 318.000000, 320.000000, 1000.000000, 1120.000000, 0.210000
577.039152, -1.924543, 0.445490, 318.000000, 320.000000, 1150.000000, 1270.000000, 0.210000
650.000676, -2.177189, 0.451430, 318.000000, 320.000000, 1300.000000, 1420.000000, 0.210000
723.148676, -2.432981, 0.457319, 318.000000, 320.000000, 1450.000000, 1570.000000, 0.210000
796.396758, -2.691873, 0.463210, 318.000000, 320.000000, 1600.000000, 1720.000000, 0.210000
862.290271, -2.927431, 0.468557, 318.000000, 320.000000, 1750.000000, 1840.000000, 0.210000
920.801415, -3.138877, 0.473376, 318.000000, 320.000000, 1870.000000, 1960.000000, 0.210000
979.144246, -3.352176, 0.478287, 318.000000, 320.000000, 1990.000000, 2080.000000, 0.210000
1037.214041, -3.567274, 0.483320, 318.000000, 320.000000, 2110.000000, 2200.000000, 0.210000
1094.880988, -3.784102, 0.488512, 318.000000, 320.000000, 2230.000000, 2320.000000, 0.210000
1151.982191, -4.002581, 0.493904, 318.000000, 320.000000, 2350.000000, 2440.000000, 0.210000
1208.310323, -4.222614, 0.499550, 318.000000, 320.000000, 2470.000000, 2560.000000, 0.210000
1263.597129, -4.444085, 0.505515, 318.000000, 320.000000, 2590.000000, 2680.000000, 0.210000
1317.488861, -4.666848, 0.511885, 318.000000, 320.000000, 2710.000000, 2800.000000, 0.210000
1369.508562, -4.890722, 0.518773, 318.000000, 320.000000, 2830.000000, 2920.000000, 0.210000
1418.996135, -5.115476, 0.526338, 318.000000, 320.000000, 2950.000000, 3040.000000, 0.210000
1465.009166, -5.340807, 0.534803, 318.000000, 320.000000, 3070.000000, 3160.000000, 0.210000
1506.150589, -5.566313, 0.544498, 318.000000, 320.000000, 3190.000000, 3280.000000, 0.210000
1540.250891, -5.791434, 0.555939, 318.000000, 320.000000, 3310.000000, 3400.000000, 0.210000
1563.736959, -6.015358, 0.569971, 318.000000, 320.000000, 3430.000000, 3520.000000, 0.210000
1570.252810, -6.236845, 0.588104, 318.000000, 320.000000, 3550.000000, 3640.000000, 0.210000
1547.231691, -6.453841, 0.613321, 318.000000, 320.000000, 3670.000000, 3760.000000, 0.210000
1465.649540, -6.662533, 0.652526, 318.000000, 320.000000, 3790.000000, 3880.000000, 0.210000
1238.868075, -6.854391, 0.726351, 318.000000, 320.000000, 3910.000000, 4000.000000, 0.210000
501.332771, -1.652151, 0.435337, 320.500000, 322.500000, 1000.000000, 1120.000000, 0.210000
573.354602, -1.897366, 0.441342, 320.500000, 322.500000, 1150.000000, 1270.000000, 0.210000
645.565519, -2.145510, 0.447232, 320.500000, 322.500000, 1300.000000, 1420.000000, 0.210000
717.896241, -2.396549, 0.453071, 320.500000, 322.500000, 1450.000000, 1570.000000, 0.210000
790.259632, -2.650434, 0.458913, 320.500000, 322.500000, 1600.000000, 1720.000000, 0.210000
855.299780, -2.881273, 0.464216, 320.500000, 322.500000, 1750.000000, 1840.000000, 0.210000
913.004180, -3.088350, 0.468998, 320.500000, 322.500000, 1870.000000, 1960.000000, 0.210000
970.495221, -3.297118, 0.473872, 320.500000, 322.500000, 1990.000000, 2080.000000, 0.210000
1027.667343, -3.507522, 0.478871, 320.500000, 322.500000, 2110.000000, 2200.000000, 0.210000
1084.389700, -3.719494, 0.484029, 320.500000, 322.500000, 2230.000000, 2320.000000, 0.210000
1140.498107, -3.932956, 0.489390, 320.500000, 322.500000, 2350.000000, 2440.000000, 0.210000
1195.783596, -4.147810, 0.495006, 320.500000, 322.500000, 2470.000000, 2560.000000, 0.210000
1249.975802, -4.363939, 0.500944, 320.500000, 322.500000, 2590.000000, 2680.000000, 0.210000
1302.718193, -4.581198, 0.507290, 320.500000, 322.500000, 2710.000000, 2800.000000, 0.210000
1353.530064, -4.799406, 0.514160, 320.500000, 322.500000, 2830.000000, 2920.000000, 0.210000
1401.746136, -5.018331, 0.521711, 320.500000, 322.500000, 2950.000000, 3040.000000, 0.210000
1446.416602, -5.237672, 0.530169, 320.500000, 322.500000, 3070.000000, 3160.000000, 0.210000
1486.133440, -5.457025, 0.539867, 320.500000, 322.500000, 3190.000000, 3280.000000, 0.210000
1518.710128, -5.675830, 0.551325, 320.500000, 322.500000, 3310.000000, 3400.000000, 0.210000
1540.545543, -5.893277, 0.565395, 320.500000, 322.500000, 3430.000000, 3520.000000, 0.210000
1545.233885, -6.108124, 0.583597, 320.500000, 322.500000, 3550.000000, 3640.000000, 0.210000
1520.109909, -6.318318, 0.608939, 320.500000, 322.500000, 3670.000000, 3760.000000, 0.210000
1435.922089, -6.520045, 0.648379, 320.500000, 322.500000, 3790.000000, 3880.000000, 0.210000
1205.353152, -6.704776, 0.722710, 320.500000, 322.500000, 3910.000000, 4000.000000, 0.210000
498.473217, -1.630057, 0.431307, 323.000000, 325.000000, 1000.000000, 1120.000000, 0.210000
569.850735, -1.871226, 0.437266, 323.000000, 325.000000, 1150.000000, 1270.000000, 0.210000
641.356350, -2.115094, 0.443109, 323.000000, 325.000000, 1300.000000, 1420.000000, 0.210000
712.920160, -2.361625, 0.448902, 323.000000, 325.000000, 1450.000000, 1570.000000, 0.210000
784.454289, -2.610772, 0.454699, 323.000000, 325.000000, 1600.000000, 1720.000000, 0.210000
848.695189, -2.837151, 0.459962, 323.000000, 325.000000, 1750.000000, 1840.000000, 0.210000
905.644476, -3.040104, 0.464710, 323.000000, 325.000000, 1870.000000, 1960.000000, 0.210000
962.338598, -3.244600, 0.469551, 323.000000, 325.000000, 1990.000000, 2080.000000, 0.210000
1018.671156, -3.450583, 0.474518, 323.000000, 325.000000, 2110.000000, 2200.000000, 0.210000
1074.510273, -3.657986, 0.479646, 323.000000, 325.000000, 2230.000000, 2320.000000, 0.210000
1129.690472, -3.866730, 0.484978, 323.000000, 325.000000, 2350.000000, 2440.000000, 0.210000
1184.001148, -4.076718, 0.490568, 323.000000, 325.000000, 2470.000000, 2560.000000, 0.210000
1237.169822, -4.287833, 0.496482, 323.000000, 325.000000, 2590.000000, 2680.000000, 0.210000
1288.837180, -4.499929, 0.502808, 323.000000, 325.000000, 2710.000000, 2800.000000, 0.210000
1338.518768, -4.712826, 0.509662, 323.000000, 325.000000, 2830.000000, 2920.000000, 0.210000
1385.544128, -4.926292, 0.517202, 323.000000, 325.000000, 2950.000000, 3040.000000, 0.210000
1428.956057, -5.140024, 0.525657, 323.000000, 325.000000, 3070.000000, 3160.000000, 0.210000
1467.335577, -5.353621, 0.535362, 323.000000, 325.000000, 3190.000000, 3280.000000, 0.210000
1498.479157, -5.566520, 0.546840, 323.000000, 325.000000, 3310.000000, 3400.000000, 0.210000
1518.757666, -5.777913, 0.560950, 323.000000, 325.000000, 3430.000000, 3520.000000, 0.210000
1521.715486, -5.986557, 0.579225, 323.000000, 325.000000, 3550.000000, 3640.000000, 0.210000
1494.588882, -6.190399, 0.604696, 323.000000, 325.000000, 3670.000000, 3760.000000, 0.210000
1407.898858, -6.385626, 0.644374, 323.000000, 325.000000, 3790.000000, 3880.000000, 0.210000
1173.649157, -6.563708, 0.719215, 323.000000, 325.000000, 3910.000000, 4000.000000, 0.210000
496.007001, -1.610826, 0.427735, 325.500000, 327.000000, 1000.000000, 1120.000000, 0.210000
566.835354, -1.848512, 0.433654, 325.500000, 327.000000, 1150.000000, 1270.000000, 0.210000
637.740769, -2.088706, 0.439458, 325.500000, 327.000000, 1300.000000, 1420.000000, 0.210000
708.652788, -2.331370, 0.445213, 325.500000, 327.000000, 1450.000000, 1570.000000, 0.210000
779.482867, -2.576459, 0.450973, 325.500000, 327.000000, 1600.000000, 1720.000000, 0.210000
843.045728, -2.799025, 0.456203, 325.500000, 327.000000, 1750.000000, 1840.000000, 0.210000
899.354796, -2.998455, 0.460923, 325.500000, 327.000000, 1870.000000, 1960.000000, 0.210000
955.373542, -3.199305, 0.465737, 325.500000, 327.000000, 1990.000000, 2080.000000, 0.210000
1010.994813, -3.401519, 0.470677, 325.500000, 327.000000, 2110.000000, 2200.000000, 0.210000
1066.085802, -3.605031, 0.475780, 325.500000, 327.000000, 2230.000000, 2320.000000, 0.210000
1120.479871, -3.809760, 0.481089, 325.500000, 327.000000, 2350.000000, 2440.000000, 0.210000
1173.964940, -4.015610, 0.486658, 325.500000, 327.000000, 2470.000000, 2560.000000, 0.210000
1226.266629, -4.222463, 0.492554, 325.500000, 327.000000, 2590.000000, 2680.000000, 0.210000
1277.023119, -4.430175, 0.498864, 325.500000, 327.000000, 2710.000000, 2800.000000, 0.210000
1325.746585, -4.638564, 0.505705, 325.500000, 327.000000, 2830.000000, 2920.000000, 0.210000
1371.761902, -4.847399, 0.513239, 325.500000, 327.000000, 2950.000000, 3040.000000, 0.210000
1414.105217, -5.056377, 0.521693, 325.500000, 327.000000, 3070.000000, 3160.000000, 0.210000
1451.347688, -5.265096, 0.531406, 325.500000, 327.000000, 3190.000000, 3280.000000, 0.210000
1481.270477, -5.472995, 0.542905, 325.500000, 327.000000, 3310.000000, 3400.000000, 0.210000
1500.219245, -5.679263, 0.557054, 325.500000, 327.000000, 3430.000000, 3520.000000, 0.210000
1501.693538, -5.882660, 0.575397, 325.500000, 327.000000, 3550.000000, 3640.000000, 0.210000
1472.840979, -6.081131, 0.600986, 325.500000, 327.000000, 3670.000000, 3760.000000, 0.210000
1383.977853, -6.270864, 0.640881, 325.500000, 327.000000, 3790.000000, 3880.000000, 0.210000
1146.496812, -6.443329, 0.716183, 325.500000, 327.000000, 3910.000000, 4000.000000, 0.210000
493.896460, -1.594229, 0.424602, 327.500000, 329.000000, 1000.000000, 1120.000000, 0.210000
564.259739, -1.828937, 0.430489, 327.500000, 329.000000, 1150.000000, 1270.000000, 0.210000
634.657579, -2.065995, 0.436261, 327.500000, 329.000000, 1300.000000, 1420.000000, 0.210000
705.019027, -2.305366, 0.441983, 327.500000, 329.000000, 1450.000000, 1570.000000, 0.210000
775.254943, -2.547002, 0.447713, 327.500000, 329.000000, 1600.000000, 1720.000000, 0.210000
838.245990, -2.766328, 0.452916, 327.500000, 329.000000, 1750.000000, 1840.000000, 0.210000
894.015425, -2.962767, 0.457612, 327.500000, 329.000000, 1870.000000, 1960.000000, 0.210000
949.465120, -3.160525, 0.462404, 327.500000, 329.000000, 1990.000000, 2080.000000, 0.210000
1004.487251, -3.359546, 0.467323, 327.500000, 329.000000, 2110.000000, 2200.000000, 0.210000
1058.948184, -3.559762, 0.472406, 327.500000, 329.000000, 2230.000000, 2320.000000, 0.210000
1112.680249, -3.761094, 0.477696, 327.500000, 329.000000, 2350.000000, 2440.000000, 0.210000
1165.470058, -3.963445, 0.483248, 327.500000, 329.000000, 2470.000000, 2560.000000, 0.210000
1217.041537, -4.166698, 0.489129, 327.500000, 329.000000, 2590.000000, 2680.000000, 0.210000
1267.030643, -4.370707, 0.495427, 327.500000, 329.000000, 2710.000000, 2800.000000, 0.210000
1314.946552, -4.575292, 0.502260, 327.500000, 329.000000, 2830.000000, 2920.000000, 0.210000
1360.109995, -4.780221, 0.509789, 327.500000, 329.000000, 2950.000000, 3040.000000, 0.210000
1401.551202, -4.985191, 0.518245, 327.500000, 329.000000, 3070.000000, 3160.000000, 0.210000
1437.832568, -5.189800, 0.527967, 327.500000, 329.000000, 3190.000000, 3280.000000, 0.210000
1466.721647, -5.393487, 0.539486, 327.500000, 329.000000, 3310.000000, 3400.000000, 0.210000
1484.541693, -5.595442, 0.553672, 327.500000, 329.000000, 3430.000000, 3520.000000, 0.210000
1484.752398, -5.794424, 0.572078, 327.500000, 329.000000, 3550.000000, 3640.000000, 0.210000
1454.422591, -5.988377, 0.597774, 327.500000, 329.000000, 3670.000000, 3760.000000, 0.210000
1363.686586, -6.173490, 0.637863, 327.500000, 329.000000, 3790.000000, 3880.000000, 0.210000
1123.393843, -6.341234, 0.713577, 327.500000, 329.000000, 3910.000000, 4000.000000, 0.210000
491.855527, -1.578066, 0.421507, 329.500000, 331.000000, 1000.000000, 1120.000000, 0.210000
561.773381, -1.809900, 0.427363, 329.500000, 331.000000, 1150.000000, 1270.000000, 0.210000
631.685730, -2.043934, 0.433105, 329.500000, 331.000000, 1300.000000, 1420.000000, 0.210000
701.521125, -2.280134, 0.438798, 329.500000, 331.000000, 1450.000000, 1570.000000, 0.210000
771.189834, -2.518451, 0.444499, 329.500000, 331.000000, 1600.000000, 1720.000000, 0.210000
833.635363, -2.734665, 0.449677, 329.500000, 331.000000, 1750.000000, 1840.000000, 0.210000
888.890234, -2.928235, 0.454352, 329.500000, 331.000000, 1870.000000, 1960.000000, 0.210000
943.797506, -3.123029, 0.459122, 329.500000, 331.000000, 1990.000000, 2080.000000, 0.210000
998.248684, -3.318991, 0.464022, 329.500000, 331.000000, 2110.000000, 2200.000000, 0.210000
1052.109308, -3.516053, 0.469086, 329.500000, 331.000000, 2230.000000, 2320.000000, 0.210000
1105.210674, -3.714135, 0.474360, 329.500000, 331.000000, 2350.000000, 2440.000000, 0.210000
1157.338086, -3.913142, 0.479896, 329.500000, 331.000000, 2470.000000, 2560.000000, 0.210000
1208.213778, -4.112954, 0.485764, 329.500000, 331.000000, 2590.000000, 2680.000000, 0.210000
1257.471481, -4.313429, 0.492051, 329.500000, 331.000000, 2710.000000, 2800.000000, 0.210000
1304.617373, -4.514383, 0.498877, 329.500000, 331.000000, 2830.000000, 2920.000000, 0.210000
1348.968041, -4.715586, 0.506404, 329.500000, 331.000000, 2950.000000, 3040.000000, 0.210000
1389.547798, -4.916735, 0.514862, 329.500000, 331.000000, 3070.000000, 3160.000000, 0.210000
1424.910275, -5.117428, 0.524596, 329.500000, 331.000000, 3190.000000, 3280.000000, 0.210000
1452.809420, -5.317103, 0.536137, 329.500000, 331.000000, 3310.000000, 3400.000000, 0.210000
1469.546078, -5.514951, 0.550361, 329.500000, 331.000000, 3430.000000, 3520.000000, 0.210000
1468.540087, -5.709730, 0.568831, 329.500000, 331.000000, 3550.000000, 3640.000000, 0.210000
1436.781484, -5.899385, 0.594635, 329.500000, 331.000000, 3670.000000, 3760.000000, 0.210000
1344.222610, -6.080105, 0.634921, 329.500000, 331.000000, 3790.000000, 3880.000000, 0.210000
1101.169735, -6.243360, 0.711048, 329.500000, 331.000000, 3910.000000, 4000.000000, 0.210000
489.879401, -1.562314, 0.418449, 331.500000, 333.000000, 1000.000000, 1120.000000, 0.210000
559.370035, -1.791369, 0.424276, 331.500000, 333.000000, 1150.000000, 1270.000000, 0.210000
628.817342, -2.022486, 0.429990, 331.500000, 333.000000, 1300.000000, 1420.000000, 0.210000
698.149379, -2.255629, 0.435656, 331.500000, 333.000000, 1450.000000, 1570.000000, 0.210000
767.275820, -2.490751, 0.441329, 331.500000, 333.000000, 1600.000000, 1720.000000, 0.210000
829.200154, -2.703973, 0.446484, 331.500000, 333.000000, 1750.000000, 1840.000000, 0.210000
883.963648, -2.894787, 0.451138, 331.500000, 333.000000, 1870.000000, 1960.000000, 0.210000
938.353119, -3.086736, 0.455890, 331.500000, 333.000000, 1990.000000, 2080.000000, 0.210000
