Coefficients constant [W],Coefficients T [W/K],Coefficients j [W/(A/m^2)],T_start [K],T_end [K],j_start [A/m^2],j_end [A/m^2],Area [m^2],Temperature starts,Temperature ends,Current density starts,Current density ends
503.716870, -1.700493, 0.447643, 313.000000, 314.500000, 1000.000000, 1090.000000, 0.210000, 313.000000, 314.500000, 1000.000000, 1090.000000
563.082773, -1.907199, 0.452611, 313.000000, 314.500000, 1120.000000, 1210.000000, 0.210000, 315.000000, 316.500000, 1120.000000, 1210.000000
622.724213, -2.116337, 0.457489, 313.000000, 314.500000, 1240.000000, 1330.000000, 0.210000, 317.000000, 318.500000, 1240.000000, 1330.000000
682.609914, -2.327893, 0.462315, 313.000000, 314.500000, 1360.000000, 1450.000000, 0.210000, 319.000000, 320.500000, 1360.000000, 1450.000000
742.702145, -2.541846, 0.467117, 313.000000, 314.500000, 1480.000000, 1570.000000, 0.210000, 321.000000, 322.500000, 1480.000000, 1570.000000
802.955580, -2.758171, 0.471924, 313.000000, 314.500000, 1600.000000, 1690.000000, 0.210000, 323.000000, 324.500000, 1600.000000, 1690.000000
863.315724, -2.976836, 0.476760, 313.000000, 314.500000, 1720.000000, 1810.000000, 0.210000, 325.000000, 326.500000, 1720.000000, 1810.000000
923.716816, -3.197804, 0.481651, 313.000000, 314.500000, 1840.000000, 1930.000000, 0.210000, 327.000000, 328.500000, 1840.000000, 1930.000000
984.079010, -3.421031, 0.486625, 313.000000, 314.500000, 1960.000000, 2050.000000, 0.210000, 329.000000, 330.500000, 1960.000000, 2050.000000
1044.304564, -3.646462, 0.491711, 313.000000, 314.500000, 2080.000000, 2170.000000, 0.210000, 331.000000, 332.500000, 2080.000000, 2170.000000
1104.272641, -3.874034, 0.496943, 313.000000, 314.500000, 2200.000000, 2290.000000, 0.210000, 333.000000, 334.500000, 2200.000000, 2290.000000
1163.832086, -4.103670, 0.502361, 313.000000, 314.500000, 2320.000000, 2410.000000, 0.210000, 335.000000, 336.500000, 2320.000000, 2410.000000
1222.791220, -4.335280, 0.508013, 313.000000, 314.500000, 2440.000000, 2530.000000, 0.210000, 337.000000, 338.500000, 2440.000000, 2530.000000
1280.903099, -4.568750, 0.513960, 313.000000, 314.500000, 2560.000000, 2650.000000, 0.210000, 339.000000, 340.500000, 2560.000000, 2650.000000
1337.843703, -4.803945, 0.520282, 313.000000, 314.500000, 2680.000000, 2770.000000, 0.210000, 341.000000, 342.500000, 2680.000000, 2770.000000
1393.178703, -5.040693, 0.527083, 313.000000, 314.500000, 2800.000000, 2890.000000, 0.210000, 343.000000, 344.500000, 2800.000000, 2890.000000
1446.311158, -5.278776, 0.534505, 313.000000, 314.500000, 2920.000000, 3010.000000, 0.210000, 345.000000, 346.500000, 2920.000000, 3010.000000
1496.395866, -5.517914, 0.542749, 313.000000, 314.500000, 3040.000000, 3130.000000, 0.210000, 347.000000, 348.500000, 3040.000000, 3130.000000
1542.192488, -5.757732, 0.552109, 313.000000, 314.500000, 3160.000000, 3250.000000, 0.210000, 349.000000, 350.500000, 3160.000000, 3250.000000
1581.799007, -5.997715, 0.563035, 313.000000, 314.500000, 3280.000000, 3370.000000, 0.210000, 351.000000, 352.500000, 3280.000000, 3370.000000
1612.132967, -6.237130, 0.576258, 313.000000, 314.500000, 3400.000000, 3490.000000, 0.210000, 353.000000, 354.500000, 3400.000000, 3490.000000
1627.827387, -6.474866, 0.593051, 313.000000, 314.500000, 3520.000000, 3610.000000, 0.210000, 355.000000, 356.500000, 3520.000000, 3610.000000
1618.584357, -6.709129, 0.615860, 313.000000, 314.500000, 3640.000000, 3730.000000, 0.210000, 357.000000, 358.500000, 3640.000000, 3730.000000
1573.679514, -6.909002, 0.644613, 313.000000, 314.500000, 3760.000000, 3820.000000, 0.210000, 359.000000, 360.000000, 3760.000000, 3820.000000
1479.879177, -7.073179, 0.682478, 313.000000, 314.500000, 3850.000000, 3910.000000, 0.210000, 360.500000, 361.500000, 3850.000000, 3910.000000
1272.549155, -7.225301, 0.747400, 313.000000, 314.500000, 3940.000000, 4000.000000, 0.210000, 362.000000, 363.000000, 3940.000000, 4000.000000
501.086899, -1.680848, 0.444243, 315.000000, 316.500000, 1000.000000, 1090.000000, 0.210000
559.957612, -1.884539, 0.449171, 315.000000, 316.500000, 1120.000000, 1210.000000, 0.210000
619.063319, -2.090504, 0.454011, 315.000000, 316.500000, 1240.000000, 1330.000000, 0.210000
678.372505, -2.298728, 0.458797, 315.000000, 316.500000, 1360.000000, 1450.000000, 0.210000
737.847172, -2.509192, 0.463561, 315.000000, 316.500000, 1480.000000, 1570.000000, 0.210000
797.441675, -2.721869, 0.468330, 315.000000, 316.500000, 1600.000000, 1690.000000, 0.210000
857.101150, -2.936729, 0.473129, 315.000000, 316.500000, 1720.000000, 1810.000000, 0.210000
916.759399, -3.153733, 0.477984, 315.000000, 316.500000, 1840.000000, 1930.000000, 0.210000
976.336049, -3.372836, 0.482922, 315.000000, 316.500000, 1960.000000, 2050.000000, 0.210000
1035.732719, -3.593986, 0.487973, 315.000000, 316.500000, 2080.000000, 2170.000000, 0.210000
1094.827791, -3.817118, 0.493171, 315.000000, 316.500000, 2200.000000, 2290.000000, 0.210000
1153.469133, -4.042156, 0.498556, 315.000000, 316.500000, 2320.000000, 2410.000000, 0.210000
1211.463833, -4.269008, 0.504177, 315.000000, 316.500000, 2440.000000, 2530.000000, 0.210000
1268.563365, -4.497563, 0.510096, 315.000000, 316.500000, 2560.000000, 2650.000000, 0.210000
1324.441633, -4.727684, 0.516392, 315.000000, 316.500000, 2680.000000, 2770.000000, 0.210000
1378.661533, -4.959198, 0.523170, 315.000000, 316.500000, 2800.000000, 2890.000000, 0.210000
1430.622311, -5.191890, 0.530573, 315.000000, 316.500000, 2920.000000, 3010.000000, 0.210000
1479.473371, -5.425477, 0.538804, 315.000000, 316.500000, 3040.000000, 3130.000000, 0.210000
1523.966460, -5.659586, 0.548157, 315.000000, 316.500000, 3160.000000, 3250.000000, 0.210000
1562.187432, -5.893701, 0.559087, 315.000000, 316.500000, 3280.000000, 3370.000000, 0.210000
1591.034177, -6.127089, 0.572329, 315.000000, 316.500000, 3400.000000, 3490.000000, 0.210000
1605.105497, -6.358639, 0.589163, 315.000000, 316.500000, 3520.000000, 3610.000000, 0.210000
1594.037831, -6.586558, 0.612052, 315.000000, 316.500000, 3640.000000, 3730.000000, 0.210000
1547.267879, -6.780751, 0.640931, 315.000000, 316.500000, 3760.000000, 3820.000000, 0.210000
1451.489444, -6.939962, 0.678988, 315.000000, 316.500000, 3850.000000, 3910.000000, 0.210000
1241.433677, -7.087027, 0.744276, 315.000000, 316.500000, 3940.000000, 4000.000000, 0.210000
498.567439, -1.661834, 0.440891, 317.000000, 318.500000, 1000.000000, 1090.000000, 0.210000
556.968632, -1.862637, 0.445782, 317.000000, 318.500000, 1120.000000, 1210.000000, 0.210000
615.566953, -2.065568, 0.450585, 317.000000, 318.500000, 1240.000000, 1330.000000, 0.210000
674.330653, -2.270612, 0.455335, 317.000000, 318.500000, 1360.000000, 1450.000000, 0.210000
733.221458, -2.477748, 0.460064, 317.000000, 318.500000, 1480.000000, 1570.000000, 0.210000
792.193411, -2.686951, 0.464797, 317.000000, 318.500000, 1600.000000, 1690.000000, 0.210000
851.191279, -2.898189, 0.469561, 317.000000, 318.500000, 1720.000000, 1810.000000, 0.210000
910.148423, -3.111424, 0.474381, 317.000000, 318.500000, 1840.000000, 1930.000000, 0.210000
968.983944, -3.326612, 0.479286, 317.000000, 318.500000, 1960.000000, 2050.000000, 0.210000
1027.598826, -3.543699, 0.484305, 317.000000, 318.500000, 2080.000000, 2170.000000, 0.210000
1085.870664, -3.762621, 0.489472, 317.000000, 318.500000, 2200.000000, 2290.000000, 0.210000
1143.646354, -3.983302, 0.494827, 317.000000, 318.500000, 2320.000000, 2410.000000, 0.210000
1200.731749, -4.205651, 0.500420, 317.000000, 318.500000, 2440.000000, 2530.000000, 0.210000
1256.876741, -4.429554, 0.506313, 317.000000, 318.500000, 2560.000000, 2650.000000, 0.210000
1311.753160, -4.654875, 0.512586, 317.000000, 318.500000, 2680.000000, 2770.000000, 0.210000
1364.921124, -4.881444, 0.519343, 317.000000, 318.500000, 2800.000000, 2890.000000, 0.210000
1415.776067, -5.109042, 0.526730, 317.000000, 318.500000, 2920.000000, 3010.000000, 0.210000
1463.461999, -5.337389, 0.534949, 317.000000, 318.500000, 3040.000000, 3130.000000, 0.210000
1506.722755, -5.566109, 0.544299, 317.000000, 318.500000, 3160.000000, 3250.000000, 0.210000
1543.632057, -5.794689, 0.555235, 317.000000, 318.500000, 3280.000000, 3370.000000, 0.210000
1571.068142, -6.022393, 0.568498, 317.000000, 318.500000, 3400.000000, 3490.000000, 0.210000
1583.595595, -6.248114, 0.585377, 317.000000, 318.500000, 3520.000000, 3610.000000, 0.210000
1570.785207, -6.470055, 0.608348, 317.000000, 318.500000, 3640.000000, 3730.000000, 0.210000
1522.223954, -6.658899, 0.637355, 317.000000, 318.500000, 3760.000000, 3820.000000, 0.210000
1424.532372, -6.813433, 0.675607, 317.000000, 318.500000, 3850.000000, 3910.000000, 0.210000
1211.817316, -6.955738, 0.741261, 317.000000, 318.500000, 3940.000000, 4000.000000, 0.210000
496.149623, -1.643409, 0.437584, 319.000000, 320.500000, 1000.000000, 1090.000000, 0.210000
554.104821, -1.841443, 0.442441, 319.000000, 320.500000, 1120.000000, 1210.000000, 0.210000
612.221728, -2.041468, 0.447210, 319.000000, 320.500000, 1240.000000, 1330.000000, 0.210000
670.468357, -2.243469, 0.451927, 319.000000, 320.500000, 1360.000000, 1450.000000, 0.210000
728.806163, -2.447426, 0.456621, 319.000000, 320.500000, 1480.000000, 1570.000000, 0.210000
787.188874, -2.653314, 0.461321, 319.000000, 320.500000, 1600.000000, 1690.000000, 0.210000
845.560886, -2.861100, 0.466053, 319.000000, 320.500000, 1720.000000, 1810.000000, 0.210000
903.855124, -3.070747, 0.470842, 319.000000, 320.500000, 1840.000000, 1930.000000, 0.210000
961.990161, -3.282210, 0.475716, 319.000000, 320.500000, 1960.000000, 2050.000000, 0.210000
1019.866345, -3.495435, 0.480704, 319.000000, 320.500000, 2080.000000, 2170.000000, 0.210000
1077.360486, -3.710359, 0.485842, 319.000000, 320.500000, 2200.000000, 2290.000000, 0.210000
1134.318505, -3.926905, 0.491170, 319.000000, 320.500000, 2320.000000, 2410.000000, 0.210000
1190.545024, -4.144980, 0.496737, 319.000000, 320.500000, 2440.000000, 2530.000000, 0.210000
1245.788349, -4.364475, 0.502607, 319.000000, 320.500000, 2560.000000, 2650.000000, 0.210000
1299.718237, -4.585250, 0.508858, 319.000000, 320.500000, 2680.000000, 2770.000000, 0.210000
1351.892030, -4.807136, 0.515598, 319.000000, 320.500000, 2800.000000, 2890.000000, 0.210000
1401.701349, -5.029914, 0.522971, 319.000000, 320.500000, 2920.000000, 3010.000000, 0.210000
1448.284810, -5.253304, 0.531181, 319.000000, 320.500000, 3040.000000, 3130.000000, 0.210000
1490.378335, -5.476930, 0.540530, 319.000000, 320.500000, 3160.000000, 3250.000000, 0.210000
1526.043517, -5.700279, 0.551475, 319.000000, 320.500000, 3280.000000, 3370.000000, 0.210000
1552.138936, -5.922616, 0.564761, 319.000000, 320.500000, 3400.000000, 3490.000000, 0.210000
1563.194962, -6.142831, 0.581686, 319.000000, 320.500000, 3520.000000, 3610.000000, 0.210000
1548.716739, -6.359130, 0.604742, 319.000000, 320.500000, 3640.000000, 3730.000000, 0.210000
1498.431663, -6.542928, 0.633880, 319.000000, 320.500000, 3760.000000, 3820.000000, 0.210000
1398.886308, -6.693051, 0.672327, 319.000000, 320.500000, 3850.000000, 3910.000000, 0.210000
1183.572715, -6.830868, 0.738350, 319.000000, 320.500000, 3940.000000, 4000.000000, 0.210000
493.825493, -1.625534, 0.434322, 321.000000, 322.500000, 1000.000000, 1090.000000, 0.210000
551.356296, -1.820908, 0.439147, 321.000000, 322.500000, 1120.000000, 1210.000000, 0.210000
609.015625, -2.018145, 0.443884, 321.000000, 322.500000, 1240.000000, 1330.000000, 0.210000
666.771257, -2.217233, 0.448568, 321.000000, 322.500000, 1360.000000, 1450.000000, 0.210000
724.584375, -2.418149, 0.453232, 321.000000, 322.500000, 1480.000000, 1570.000000, 0.210000
782.408392, -2.620868, 0.457901, 321.000000, 322.500000, 1600.000000, 1690.000000, 0.210000
840.187334, -2.825359, 0.462602, 321.000000, 322.500000, 1720.000000, 1810.000000, 0.210000
897.853688, -3.031583, 0.467362, 321.000000, 322.500000, 1840.000000, 1930.000000, 0.210000
955.325501, -3.239497, 0.472207, 321.000000, 322.500000, 1960.000000, 2050.000000, 0.210000
1012.502483, -3.449045, 0.477167, 321.000000, 322.500000, 2080.000000, 2170.000000, 0.210000
1069.260662, -3.660164, 0.482279, 321.000000, 322.500000, 2200.000000, 2290.000000, 0.210000
1125.444981, -3.872778, 0.487581, 321.000000, 322.500000, 2320.000000, 2410.000000, 0.210000
1180.858832, -4.086795, 0.493125, 321.000000, 322.500000, 2440.000000, 2530.000000, 0.210000
1235.248937, -4.302103, 0.498973, 321.000000, 322.500000, 2560.000000, 2650.000000, 0.210000
1288.282977, -4.518565, 0.505205, 321.000000, 322.500000, 2680.000000, 2770.000000, 0.210000
1339.515520, -4.736009, 0.511929, 321.000000, 322.500000, 2800.000000, 2890.000000, 0.210000
1388.334374, -4.954219, 0.519290, 321.000000, 322.500000, 2920.000000, 3010.000000, 0.210000
1433.872759, -5.172913, 0.527495, 321.000000, 322.500000, 3040.000000, 3130.000000, 0.210000
1474.858686, -5.391715, 0.536844, 321.000000, 322.500000, 3160.000000, 3250.000000, 0.210000
1509.341616, -5.610114, 0.547800, 321.000000, 322.500000, 3280.000000, 3370.000000, 0.210000
1534.160478, -5.827371, 0.561112, 321.000000, 322.500000, 3400.000000, 3490.000000, 0.210000
1543.811423, -6.042381, 0.578086, 321.000000, 322.500000, 3520.000000, 3610.000000, 0.210000
1527.733946, -6.253346, 0.601228, 321.000000, 322.500000, 3640.000000, 3730.000000, 0.210000
1475.786841, -6.432374, 0.630498, 321.000000, 322.500000, 3760.000000, 3820.000000, 0.210000
1374.442086, -6.578329, 0.669143, 321.000000, 322.500000, 3850.000000, 3910.000000, 0.210000
1156.585588, -6.711906, 0.735537, 321.000000, 322.500000, 3940.000000, 4000.000000, 0.210000
491.587886, -1.608177, 0.431103, 323.000000, 324.500000, 1000.000000, 1090.000000, 0.210000
548.714164, -1.800990, 0.435897, 323.000000, 324.500000, 1120.000000, 1210.000000, 0.210000
605.937834, -1.995551, 0.440604, 323.000000, 324.500000, 1240.000000, 1330.000000, 0.210000
663.226437, -2.191842, 0.445259, 323.000000, 324.500000, 1360.000000, 1450.000000, 0.210000
720.540884, -2.389844, 0.449893, 323.000000, 324.500000, 1480.000000, 1570.000000, 0.210000
777.834274, -2.589531, 0.454533, 323.000000, 324.500000, 1600.000000, 1690.000000, 0.210000
835.050264, -2.790871, 0.459206, 323.000000, 324.500000, 1720.000000, 1810.000000, 0.210000
892.120900, -2.993826, 0.463938, 323.000000, 324.500000, 1840.000000, 1930.000000, 0.210000
948.963706, -3.198352, 0.468757, 323.000000, 324.500000, 1960.000000, 2050.000000, 0.210000
1005.477752, -3.404394, 0.473692, 323.000000, 324.500000, 2080.000000, 2170.000000, 0.210000
1061.538284, -3.611888, 0.478778, 323.000000, 324.500000, 2200.000000, 2290.000000, 0.210000
1116.989270, -3.820758, 0.484058, 323.000000, 324.500000, 2320.000000, 2410.000000, 0.210000
1171.632868, -4.030913, 0.489580, 323.000000, 324.500000, 2440.000000, 2530.000000, 0.210000
1225.214218, -4.242240, 0.495408, 323.000000, 324.500000, 2560.000000, 2650.000000, 0.210000
1277.398926, -4.454602, 0.501624, 323.000000, 324.500000, 2680.000000, 2770.000000, 0.210000
1327.738785, -4.667827, 0.508334, 323.000000, 324.500000, 2800.000000, 2890.000000, 0.210000
1375.617787, -4.881699, 0.515685, 323.000000, 324.500000, 2920.000000, 3010.000000, 0.210000
1420.163762, -5.095937, 0.523886, 323.000000, 324.500000, 3040.000000, 3130.000000, 0.210000
1460.096805, -5.310165, 0.533238, 323.000000, 324.500000, 3160.000000, 3250.000000, 0.210000
1493.454250, -5.523869, 0.544207, 323.000000, 324.500000, 3280.000000, 3370.000000, 0.210000
1517.055369, -5.736314, 0.557547, 323.000000, 324.500000, 3400.000000, 3490.000000, 0.210000
1525.362098, -5.946391, 0.574571, 323.000000, 324.500000, 3520.000000, 3610.000000, 0.210000
1507.748281, -6.152306, 0.597802, 323.000000, 324.500000, 3640.000000, 3730.000000, 0.210000
1454.195834, -6.326820, 0.627207, 323.000000, 324.500000, 3760.000000, 3820.000000, 0.210000
1351.101556, -6.468830, 0.666051, 323.000000, 324.500000, 3850.000000, 3910.000000, 0.210000
1130.753182, -6.598397, 0.732816, 323.000000, 324.500000, 3940.000000, 4000.000000, 0.210000
489.430349, -1.591304, 0.427924, 325.000000, 326.500000, 1000.000000, 1090.000000, 0.210000
546.170411, -1.781652, 0.432690, 325.000000, 326.500000, 1120.000000, 1210.000000, 0.210000
602.978612, -1.973637, 0.437369, 325.000000, 326.500000, 1240.000000, 1330.000000, 0.210000
659.822256, -2.167243, 0.441996, 325.000000, 326.500000, 1360.000000, 1450.000000, 0.210000
716.661985, -2.362449, 0.446603, 325.000000, 326.500000, 1480.000000, 1570.000000, 0.210000
773.450581, -2.559229, 0.451216, 325.000000, 326.500000, 1600.000000, 1690.000000, 0.210000
830.131330, -2.757552, 0.455863, 325.000000, 326.500000, 1720.000000, 1810.000000, 0.210000
886.635843, -2.957380, 0.460569, 325.000000, 326.500000, 1840.000000, 1930.000000, 0.210000
942.881117, -3.158667, 0.465363, 325.000000, 326.500000, 1960.000000, 2050.000000, 0.210000
998.765583, -3.361360, 0.470274, 325.000000, 326.500000, 2080.000000, 2170.000000, 0.210000
1054.163705, -3.565395, 0.475338, 325.000000, 326.500000, 2200.000000, 2290.000000, 0.210000
1108.918476, -3.770695, 0.480596, 325.000000, 326.500000, 2320.000000, 2410.000000, 0.210000
1162.830820, -3.977168, 0.486099, 325.000000, 326.500000, 2440.000000, 2530.000000, 0.210000
1215.644295, -4.184703, 0.491909, 325.000000, 326.500000, 2560.000000, 2650.000000, 0.210000
1267.022433, -4.393162, 0.498110, 325.000000, 326.500000, 2680.000000, 2770.000000, 0.210000
1316.514248, -4.602375, 0.504808, 325.000000, 326.500000, 2800.000000, 2890.000000, 0.210000
1363.499923, -4.812123, 0.512152, 325.000000, 326.500000, 2920.000000, 3010.000000, 0.210000
1407.101892, -5.022125, 0.520350, 325.000000, 326.500000, 3040.000000, 3130.000000, 0.210000
1446.032337, -5.232006, 0.529707, 325.000000, 326.500000, 3160.000000, 3250.000000, 0.210000
1478.316463, -5.441254, 0.540691, 325.000000, 326.500000, 3280.000000, 3370.000000, 0.210000
1500.753887, -5.649131, 0.554060, 325.000000, 326.500000, 3400.000000, 3490.000000, 0.210000
1507.772327, -5.854529, 0.571137, 325.000000, 326.500000, 3520.000000, 3610.000000, 0.210000
1488.679982, -6.055654, 0.594460, 325.000000, 326.500000, 3640.000000, 3730.000000, 0.210000
1433.574276, -6.225888, 0.623999, 325.000000, 326.500000, 3760.000000, 3820.000000, 0.210000
1328.776302, -6.364161, 0.663044, 325.000000, 326.500000, 3850.000000, 3910.000000, 0.210000
1105.982936, -6.489927, 0.730182, 325.000000, 326.500000, 3940.000000, 4000.000000, 0.210000
487.347055, -1.574888, 0.424785, 327.000000, 328.500000, 1000.000000, 1090.000000, 0.210000
543.717802, -1.762859, 0.429524, 327.000000, 328.500000, 1120.000000, 1210.000000, 0.210000
600.129164, -1.952363, 0.434177, 327.000000, 328.500000, 1240.000000, 1330.000000, 0.210000
656.548208, -2.143385, 0.438778, 327.000000, 328.500000, 1360.000000, 1450.000000, 0.210000
712.935305, -2.335904, 0.443359, 327.000000, 328.500000, 1480.000000, 1570.000000, 0.210000
769.242921, -2.529895, 0.447947, 327.000000, 328.500000, 1600.000000, 1690.000000, 0.210000
825.413975, -2.725325, 0.452570, 327.000000, 328.500000, 1720.000000, 1810.000000, 0.210000
881.379637, -2.922156, 0.457252, 327.000000, 328.500000, 1840.000000, 1930.000000, 0.210000
937.056379, -3.120344, 0.462022, 327.000000, 328.500000, 1960.000000, 2050.000000, 0.210000
992.341996, -3.319834, 0.466911, 327.000000, 328.500000, 2080.000000, 2170.000000, 0.210000
1047.110166, -3.520562, 0.471955, 327.000000, 328.500000, 2200.000000, 2290.000000, 0.210000
1101.202908, -3.722452, 0.477193, 327.000000, 328.500000, 2320.000000, 2410.000000, 0.210000
1154.419915, -3.925412, 0.482678, 327.000000, 328.500000, 2440.000000, 2530.000000, 0.210000
1206.503159, -4.129330, 0.488473, 327.000000, 328.500000, 2560.000000, 2650.000000, 0.210000
1257.114099, -4.334069, 0.494660, 327.000000, 328.500000, 2680.000000, 2770.000000, 0.210000
1305.798973, -4.539458, 0.501348, 327.000000, 328.500000, 2800.000000, 2890.000000, 0.210000
1351.934152, -4.745278, 0.508686, 327.000000, 328.500000, 2920.000000, 3010.000000, 0.210000
